Data from repetition_2.txt_16-47-09-365.txt Node
Date: Sun Jun 13 23:27:09 CET 2021
User: fcossio
Spectrometer: FLMS15016
Trigger mode: 0
Integration Time (sec): 3.000000E-1Scans to average: 1
Electric dark correction enabled: true
Nonlinearity correction enabled: false
Boxcar width: 0
XAxis mode: Wavelengths
Number of Pixels in Spectrum: 2048
>>>>>Begin Spectral Data<<<<<
340.154	0.000
340.487	0.000
340.821	0.000
341.154	0.000
341.488	0.000
341.821	0.000
342.155	0.000
342.488	0.000
342.821	0.000
343.155	0.000
343.488	0.000
343.822	0.000
344.155	0.000
344.489	0.000
344.822	0.000
345.155	0.000
345.489	0.000
345.822	0.000
346.156	0.000
346.489	0.000
346.823	0.000
347.156	0.000
347.490	0.000
347.823	0.000
348.156	0.000
348.490	0.000
348.823	0.000
349.157	0.000
349.490	0.000
349.824	0.000
350.157	0.000
350.490	0.000
350.824	0.000
351.157	0.000
351.491	0.000
351.824	0.000
352.158	0.000
352.491	0.000
352.824	0.000
353.158	0.000
353.491	0.000
353.825	0.000
354.158	0.000
354.492	0.000
354.825	0.000
355.158	0.000
355.492	0.000
355.825	0.000
356.159	0.000
356.492	0.000
356.826	0.000
357.159	0.000
357.492	0.000
357.826	0.000
358.159	0.000
358.493	0.000
358.826	0.000
359.160	0.000
359.493	0.000
359.826	0.000
360.160	0.000
360.493	0.000
360.827	0.000
361.160	0.000
361.494	0.000
361.827	0.000
362.161	0.000
362.494	0.000
362.827	0.000
363.161	0.000
363.494	0.000
363.828	0.000
364.161	0.000
364.495	0.000
364.828	0.000
365.161	0.000
365.495	0.000
365.828	0.000
366.162	0.000
366.495	0.000
366.829	0.000
367.162	0.000
367.495	0.000
367.829	0.000
368.162	0.000
368.496	0.000
368.829	0.000
369.163	0.000
369.496	0.000
369.829	0.000
370.163	0.000
370.496	0.000
370.830	0.000
371.163	0.000
371.497	0.000
371.830	0.000
372.163	0.000
372.497	0.000
372.830	0.000
373.164	0.000
373.497	0.000
373.831	0.000
374.164	0.000
374.497	0.000
374.831	0.000
375.164	0.000
375.498	0.000
375.831	0.000
376.165	0.000
376.498	0.000
376.832	0.000
377.165	0.000
377.498	0.000
377.832	0.000
378.165	0.000
378.499	0.000
378.832	0.000
379.166	0.000
379.499	0.000
379.832	0.000
380.166	0.000
380.499	0.000
380.833	0.000
381.166	0.000
381.500	0.000
381.833	0.000
382.166	0.000
382.500	0.000
382.833	0.000
383.167	0.000
383.500	0.000
383.834	0.000
384.167	0.000
384.500	0.000
384.834	0.000
385.167	0.000
385.501	0.000
385.834	0.000
386.168	0.000
386.501	0.000
386.834	0.000
387.168	0.000
387.501	0.000
387.835	0.000
388.168	0.000
388.502	0.000
388.835	0.000
389.168	0.000
389.502	0.000
389.835	0.000
390.169	0.000
390.502	0.000
390.836	0.000
391.169	0.000
391.503	0.000
391.836	0.000
392.169	0.000
392.503	0.000
392.836	0.000
393.170	0.000
393.503	0.000
393.837	0.000
394.170	0.000
394.503	0.000
394.837	0.000
395.170	0.000
395.504	0.000
395.837	0.000
396.171	0.000
396.504	0.000
396.837	0.000
397.171	0.000
397.504	0.000
397.838	0.000
398.171	0.000
398.505	0.000
398.838	0.000
399.171	0.000
399.505	0.000
399.838	0.000
400.172	0.000
400.505	0.000
400.839	0.000
401.172	0.000
401.505	0.000
401.839	0.000
402.172	0.000
402.506	0.000
402.839	0.000
403.173	0.000
403.506	0.000
403.839	0.000
404.173	0.000
404.506	0.000
404.840	0.000
405.173	0.000
405.507	0.000
405.840	0.000
406.174	0.000
406.507	0.000
406.840	0.000
407.174	0.000
407.507	0.000
407.841	0.000
408.174	0.000
408.508	0.000
408.841	0.000
409.174	0.000
409.508	0.000
409.841	0.000
410.175	0.000
410.508	0.000
410.842	0.000
411.175	0.000
411.508	0.000
411.842	0.000
412.175	0.000
412.509	0.000
412.842	0.000
413.176	0.000
413.509	0.000
413.842	0.000
414.176	0.000
414.509	0.000
414.843	0.000
415.176	0.000
415.510	0.000
415.843	0.000
416.176	0.000
416.510	0.000
416.843	0.000
417.177	0.000
417.510	0.000
417.844	0.000
418.177	0.000
418.510	0.000
418.844	0.000
419.177	0.000
419.511	0.000
419.844	0.000
420.178	0.000
420.511	0.000
420.845	0.000
421.178	0.000
421.511	0.000
421.845	0.000
422.178	0.000
422.512	0.000
422.845	0.000
423.179	0.000
423.512	0.000
423.845	0.000
424.179	0.000
424.512	0.000
424.846	0.000
425.179	0.000
425.513	0.000
425.846	0.000
426.179	0.000
426.513	0.000
426.846	0.000
427.180	0.000
427.513	0.000
427.847	0.000
428.180	0.000
428.513	0.000
428.847	0.000
429.180	0.000
429.514	0.000
429.847	0.000
430.181	0.000
430.514	0.000
430.847	0.000
431.181	0.000
431.514	0.000
431.848	0.000
432.181	0.000
432.515	0.000
432.848	0.000
433.181	0.000
433.515	0.000
433.848	0.000
434.182	0.000
434.515	0.000
434.849	0.000
435.182	0.000
435.516	0.000
435.849	0.000
436.182	0.000
436.516	0.000
436.849	0.000
437.183	0.000
437.516	0.000
437.850	0.000
438.183	0.000
438.516	0.000
438.850	0.000
439.183	0.000
439.517	0.000
439.850	0.000
440.184	0.000
440.517	0.000
440.850	0.000
441.184	0.000
441.517	0.000
441.851	0.000
442.184	0.000
442.518	0.000
442.851	0.000
443.184	0.000
443.518	0.000
443.851	0.000
444.185	0.000
444.518	0.000
444.852	0.000
445.185	0.000
445.518	0.000
445.852	0.000
446.185	0.000
446.519	0.000
446.852	0.000
447.186	0.000
447.519	0.000
447.852	0.000
448.186	0.000
448.519	0.000
448.853	0.000
449.186	0.000
449.520	0.000
449.853	0.000
450.187	0.001
450.520	0.001
450.853	0.001
451.187	0.001
451.520	0.001
451.854	0.001
452.187	0.001
452.521	0.001
452.854	0.001
453.187	0.001
453.521	0.001
453.854	0.002
454.188	0.002
454.521	0.002
454.855	0.002
455.188	0.002
455.521	0.003
455.855	0.003
456.188	0.003
456.522	0.004
456.855	0.004
457.189	0.004
457.522	0.005
457.855	0.005
458.189	0.006
458.522	0.006
458.856	0.007
459.189	0.008
459.523	0.008
459.856	0.009
460.189	0.010
460.523	0.011
460.856	0.012
461.190	0.013
461.523	0.014
461.857	0.016
462.190	0.017
462.523	0.019
462.857	0.021
463.190	0.023
463.524	0.025
463.857	0.027
464.191	0.029
464.524	0.032
464.858	0.035
465.191	0.038
465.524	0.042
465.858	0.046
466.191	0.050
466.525	0.054
466.858	0.059
467.192	0.064
467.525	0.070
467.858	0.076
468.192	0.083
468.525	0.090
468.859	0.098
469.192	0.106
469.526	0.116
469.859	0.126
470.192	0.136
470.526	0.148
470.859	0.161
471.193	0.174
471.526	0.189
471.860	0.205
472.193	0.222
472.526	0.240
472.860	0.260
473.193	0.281
473.527	0.304
473.860	0.329
474.194	0.356
474.527	0.385
474.860	0.416
475.194	0.449
475.527	0.485
475.861	0.523
476.194	0.564
476.528	0.609
476.861	0.656
477.194	0.707
477.528	0.762
477.861	0.821
478.195	0.884
478.528	0.951
478.862	1.024
479.195	1.101
479.529	1.184
479.862	1.272
480.195	1.367
480.529	1.469
480.862	1.577
481.196	1.693
481.529	1.816
481.863	1.948
482.196	2.089
482.529	2.239
482.863	2.400
483.196	2.570
483.530	2.753
483.863	2.946
484.197	3.153
484.530	3.373
484.863	3.607
485.197	3.855
485.530	4.120
485.864	4.401
486.197	4.700
486.531	5.017
486.864	5.354
487.197	5.712
487.531	6.091
487.864	6.493
488.198	6.920
488.531	7.372
488.865	7.851
489.198	8.358
489.531	8.894
489.865	9.462
490.198	10.063
490.532	10.698
490.865	11.370
491.199	12.079
491.532	12.828
491.865	13.619
492.199	14.454
492.532	15.335
492.866	16.264
493.199	17.243
493.533	18.275
493.866	19.362
494.200	20.506
494.533	21.711
494.866	22.979
495.200	24.312
495.533	25.714
495.867	27.187
496.200	28.735
496.534	30.361
496.867	32.067
497.200	33.858
497.534	35.736
497.867	37.706
498.201	39.771
498.534	41.934
498.868	44.200
499.201	46.572
499.534	49.055
499.868	51.652
500.201	54.368
500.535	57.207
500.868	60.174
501.202	63.273
501.535	66.509
501.868	69.886
502.202	73.410
502.535	77.084
502.869	80.915
503.202	84.907
503.536	89.065
503.869	93.395
504.202	97.902
504.536	102.591
504.869	107.468
505.203	112.537
505.536	117.806
505.870	123.279
506.203	128.961
506.536	134.860
506.870	140.979
507.203	147.326
507.537	153.906
507.870	160.724
508.204	167.787
508.537	175.099
508.871	182.668
509.204	190.499
509.537	198.597
509.871	206.968
510.204	215.617
510.538	224.552
510.871	233.776
511.205	243.295
511.538	253.115
511.871	263.241
512.205	273.678
512.538	284.431
512.872	295.505
513.205	306.905
513.539	318.635
513.872	330.699
514.205	343.103
514.539	355.850
514.872	368.943
515.206	382.387
515.539	396.184
515.873	410.339
516.206	424.853
516.539	439.729
516.873	454.970
517.206	470.578
517.540	486.554
517.873	502.899
518.207	519.615
518.540	536.702
518.873	554.161
519.207	571.991
519.540	590.192
519.874	608.763
520.207	627.703
520.541	647.009
520.874	666.681
521.207	686.714
521.541	707.107
521.874	727.855
522.208	748.954
522.541	770.401
522.875	792.189
523.208	814.314
523.542	836.770
523.875	859.549
524.208	882.645
524.542	906.050
524.875	929.757
525.209	953.756
525.542	978.039
525.876	1002.595
526.209	1027.415
526.542	1052.488
526.876	1077.802
527.209	1103.346
527.543	1129.108
527.876	1155.074
528.210	1181.231
528.543	1207.566
528.876	1234.064
529.210	1260.711
529.543	1287.490
529.877	1314.386
530.210	1341.384
530.544	1368.466
530.877	1395.615
531.210	1422.814
531.544	1450.045
531.877	1477.289
532.211	1504.529
532.544	1531.744
532.878	1558.916
533.211	1586.026
533.544	1613.052
533.878	1639.976
534.211	1666.776
534.545	1693.432
534.878	1719.924
535.212	1746.230
535.545	1772.330
535.878	1798.202
536.212	1823.825
536.545	1849.178
536.879	1874.239
537.212	1898.988
537.546	1923.402
537.879	1947.462
538.213	1971.145
538.546	1994.431
538.879	2017.299
539.213	2039.729
539.546	2061.700
539.880	2083.191
540.213	2104.184
540.547	2124.659
540.880	2144.597
541.213	2163.978
541.547	2182.784
541.880	2200.998
542.214	2218.602
542.547	2235.579
542.881	2251.913
543.214	2267.587
543.547	2282.587
543.881	2296.897
544.214	2310.503
544.548	2323.393
544.881	2335.553
545.215	2346.971
545.548	2357.635
545.881	2367.536
546.215	2376.663
546.548	2385.006
546.882	2392.559
547.215	2399.313
547.549	2405.261
547.882	2410.398
548.215	2414.718
548.549	2418.218
548.882	2420.893
549.216	2422.743
549.549	2423.764
549.883	2423.957
550.216	2423.321
550.549	2421.858
550.883	2419.570
551.216	2416.460
551.550	2412.531
551.883	2407.787
552.217	2402.236
552.550	2395.883
552.884	2388.735
553.217	2380.800
553.550	2372.089
553.884	2362.610
554.217	2352.374
554.551	2341.393
554.884	2329.680
555.218	2317.248
555.551	2304.110
555.884	2290.281
556.218	2275.778
556.551	2260.616
556.885	2244.812
557.218	2228.385
557.552	2211.352
557.885	2193.734
558.218	2175.549
558.552	2156.818
558.885	2137.563
559.219	2117.804
559.552	2097.565
559.886	2076.869
560.219	2055.738
560.552	2034.197
560.886	2012.270
561.219	1989.982
561.553	1967.359
561.886	1944.427
562.220	1921.212
562.553	1897.741
562.886	1874.040
563.220	1850.139
563.553	1826.064
563.887	1801.845
564.220	1777.509
564.554	1753.086
564.887	1728.605
565.220	1704.096
565.554	1679.588
565.887	1655.112
566.221	1630.699
566.554	1606.378
566.888	1582.181
567.221	1558.138
567.555	1534.281
567.888	1510.642
568.221	1487.251
568.555	1464.140
568.888	1441.342
569.222	1418.887
569.555	1396.808
569.889	1375.138
570.222	1353.907
570.555	1333.148
570.889	1312.893
571.222	1293.174
571.556	1274.023
571.889	1255.471
572.223	1237.551
572.556	1220.294
572.889	1203.731
573.223	1187.894
573.556	1172.813
573.890	1158.519
574.223	1145.043
574.557	1132.415
574.890	1120.663
575.223	1109.818
575.557	1099.907
575.890	1090.960
576.224	1083.002
576.557	1076.062
576.891	1070.165
577.224	1065.336
577.557	1061.600
577.891	1058.980
578.224	1057.499
578.558	1057.178
578.891	1058.038
579.225	1060.098
579.558	1063.376
579.892	1067.889
580.225	1073.650
580.558	1080.675
580.892	1088.976
581.225	1098.562
581.559	1109.443
581.892	1121.626
582.226	1135.115
582.559	1149.914
582.892	1166.023
583.226	1183.443
583.559	1202.169
583.893	1222.197
584.226	1243.518
584.560	1266.123
584.893	1289.998
585.226	1315.130
585.560	1341.500
585.893	1369.089
586.227	1397.874
586.560	1427.830
586.894	1458.928
587.227	1491.138
587.560	1524.427
587.894	1558.759
588.227	1594.094
588.561	1630.392
588.894	1667.609
589.228	1705.697
589.561	1744.608
589.894	1784.289
590.228	1824.686
590.561	1865.743
590.895	1907.399
591.228	1949.594
591.562	1992.264
591.895	2035.343
592.228	2078.763
592.562	2122.454
592.895	2166.346
593.229	2210.365
593.562	2254.436
593.896	2298.484
594.229	2342.432
594.563	2386.202
594.896	2429.715
595.229	2472.892
595.563	2515.653
595.896	2557.918
596.230	2599.608
596.563	2640.641
596.897	2680.938
597.230	2720.421
597.563	2759.011
597.897	2796.631
598.230	2833.204
598.564	2868.656
598.897	2902.914
599.231	2935.906
599.564	2967.564
599.897	2997.818
600.231	3026.606
600.564	3053.865
600.898	3079.535
601.231	3103.560
601.565	3125.886
601.898	3146.463
602.231	3165.244
602.565	3182.186
602.898	3197.250
603.232	3210.398
603.565	3221.601
603.899	3230.828
604.232	3238.058
604.565	3243.268
604.899	3246.445
605.232	3247.576
605.566	3246.654
605.899	3243.676
606.233	3238.644
606.566	3231.562
606.899	3222.442
607.233	3211.296
607.566	3198.142
607.900	3183.003
608.233	3165.904
608.567	3146.876
608.900	3125.952
609.234	3103.170
609.567	3078.569
609.900	3052.195
610.234	3024.095
610.567	2994.320
610.901	2962.922
611.234	2929.959
611.568	2895.488
611.901	2859.572
612.234	2822.272
612.568	2783.656
612.901	2743.789
613.235	2702.741
613.568	2660.582
613.902	2617.383
614.235	2573.216
614.568	2528.154
614.902	2482.270
615.235	2435.640
615.569	2388.336
615.902	2340.433
616.236	2292.004
616.569	2243.123
616.902	2193.863
617.236	2144.296
617.569	2094.492
617.903	2044.521
618.236	1994.453
618.570	1944.353
618.903	1894.289
619.236	1844.323
619.570	1794.517
619.903	1744.932
620.237	1695.626
620.570	1646.655
620.904	1598.073
621.237	1549.930
621.570	1502.276
621.904	1455.158
622.237	1408.619
622.571	1362.702
622.904	1317.445
623.238	1272.886
623.571	1229.057
623.905	1185.991
624.238	1143.717
624.571	1102.261
624.905	1061.647
625.238	1021.896
625.572	983.027
625.905	945.057
626.239	908.000
626.572	871.868
626.905	836.671
627.239	802.416
627.572	769.109
627.906	736.754
628.239	705.350
628.573	674.900
628.906	645.399
629.239	616.845
629.573	589.232
629.906	562.553
630.240	536.800
630.573	511.962
630.907	488.030
631.240	464.991
631.573	442.832
631.907	421.538
632.240	401.095
632.574	381.486
632.907	362.697
633.241	344.708
633.574	327.502
633.907	311.062
634.241	295.368
634.574	280.402
634.908	266.145
635.241	252.576
635.575	239.677
635.908	227.428
636.241	215.810
636.575	204.802
636.908	194.386
637.242	184.542
637.575	175.252
637.909	166.496
638.242	158.255
638.576	150.513
638.909	143.250
639.242	136.450
639.576	130.095
639.909	124.169
640.243	118.655
640.576	113.538
640.910	108.803
641.243	104.435
641.576	100.421
641.910	96.745
642.243	93.396
642.577	90.361
642.910	87.628
643.244	85.186
643.577	83.024
643.910	81.131
644.244	79.498
644.577	78.117
644.911	76.978
645.244	76.074
645.578	75.397
645.911	74.940
646.244	74.698
646.578	74.664
646.911	74.832
647.245	75.200
647.578	75.761
647.912	76.513
648.245	77.452
648.578	78.576
648.912	79.882
649.245	81.368
649.579	83.033
649.912	84.877
650.246	86.898
650.579	89.096
650.912	91.473
651.246	94.028
651.579	96.763
651.913	99.679
652.246	102.779
652.580	106.063
652.913	109.536
653.247	113.199
653.580	117.056
653.913	121.111
654.247	125.368
654.580	129.829
654.914	134.501
655.247	139.387
655.581	144.493
655.914	149.824
656.247	155.385
656.581	161.182
656.914	167.221
657.248	173.508
657.581	180.049
657.915	186.852
658.248	193.922
658.581	201.267
658.915	208.894
659.248	216.809
659.582	225.021
659.915	233.537
660.249	242.364
660.582	251.511
660.915	260.985
661.249	270.793
661.582	280.945
661.916	291.447
662.249	302.309
662.583	313.537
662.916	325.142
663.249	337.129
663.583	349.508
663.916	362.287
664.250	375.474
664.583	389.076
664.917	403.101
665.250	417.558
665.583	432.455
665.917	447.797
666.250	463.594
666.584	479.852
666.917	496.579
667.251	513.780
667.584	531.464
667.918	549.635
668.251	568.301
668.584	587.467
668.918	607.139
669.251	627.322
669.585	648.020
669.918	669.239
670.252	690.983
670.585	713.254
670.918	736.057
671.252	759.394
671.585	783.268
671.919	807.681
672.252	832.634
672.586	858.127
672.919	884.162
673.252	910.738
673.586	937.854
673.919	965.509
674.253	993.700
674.586	1022.426
674.920	1051.683
675.253	1081.466
675.586	1111.772
675.920	1142.595
676.253	1173.928
676.587	1205.766
676.920	1238.100
677.254	1270.923
677.587	1304.225
677.920	1337.997
678.254	1372.228
678.587	1406.908
678.921	1442.023
679.254	1477.561
679.588	1513.509
679.921	1549.853
680.254	1586.576
680.588	1623.664
680.921	1661.099
681.255	1698.864
681.588	1736.942
681.922	1775.312
682.255	1813.956
682.589	1852.852
682.922	1891.980
683.255	1931.319
683.589	1970.845
683.922	2010.535
684.256	2050.365
684.589	2090.312
684.923	2130.350
685.256	2170.453
685.589	2210.595
685.923	2250.750
686.256	2290.890
686.590	2330.988
686.923	2371.016
687.257	2410.945
687.590	2450.746
687.923	2490.391
688.257	2529.849
688.590	2569.092
688.924	2608.088
689.257	2646.809
689.591	2685.223
689.924	2723.301
690.257	2761.012
690.591	2798.325
690.924	2835.211
691.258	2871.640
691.591	2907.580
691.925	2943.002
692.258	2977.876
692.591	3012.174
692.925	3045.865
693.258	3078.921
693.592	3111.313
693.925	3143.015
694.259	3173.997
694.592	3204.233
694.925	3233.697
695.259	3262.363
695.592	3290.207
695.926	3317.203
696.259	3343.328
696.593	3368.559
696.926	3392.875
697.260	3416.254
697.593	3438.677
697.926	3460.123
698.260	3480.575
698.593	3500.015
698.927	3518.427
699.260	3535.795
699.594	3552.107
699.927	3567.348
700.260	3581.507
700.594	3594.574
700.927	3606.538
701.261	3617.391
701.594	3627.127
701.928	3635.739
702.261	3643.222
702.594	3649.574
702.928	3654.792
703.261	3658.875
703.595	3661.824
703.928	3663.640
704.262	3664.325
704.595	3663.884
704.928	3662.323
705.262	3659.647
705.595	3655.865
705.929	3650.985
706.262	3645.017
706.596	3637.973
706.929	3629.866
707.262	3620.708
707.596	3610.514
707.929	3599.300
708.263	3587.083
708.596	3573.880
708.930	3559.711
709.263	3544.595
709.596	3528.552
709.930	3511.605
710.263	3493.774
710.597	3475.085
710.930	3455.560
711.264	3435.224
711.597	3414.102
711.931	3392.222
712.264	3369.608
712.597	3346.288
712.931	3322.290
713.264	3297.642
713.598	3272.372
713.931	3246.510
714.265	3220.085
714.598	3193.126
714.931	3165.663
715.265	3137.726
715.598	3109.345
715.932	3080.550
716.265	3051.372
716.599	3021.842
716.932	2991.989
717.265	2961.843
717.599	2931.436
717.932	2900.796
718.266	2869.954
718.599	2838.939
718.933	2807.781
719.266	2776.508
719.599	2745.151
719.933	2713.735
720.266	2682.291
720.600	2650.845
720.933	2619.424
721.267	2588.055
721.600	2556.764
721.933	2525.577
722.267	2494.518
722.600	2463.612
722.934	2432.882
723.267	2402.352
723.601	2372.044
723.934	2341.980
724.267	2312.180
724.601	2282.667
724.934	2253.458
725.268	2224.574
725.601	2196.032
725.935	2167.850
726.268	2140.045
726.602	2112.632
726.935	2085.628
727.268	2059.047
727.602	2032.902
727.935	2007.207
728.269	1981.973
728.602	1957.214
728.936	1932.938
729.269	1909.157
729.602	1885.880
729.936	1863.116
730.269	1840.872
730.603	1819.155
730.936	1797.973
731.270	1777.332
731.603	1757.236
731.936	1737.690
732.270	1718.698
732.603	1700.264
732.937	1682.389
733.270	1665.077
733.604	1648.329
733.937	1632.145
734.270	1616.527
734.604	1601.474
734.937	1586.986
735.271	1573.061
735.604	1559.698
735.938	1546.895
736.271	1534.650
736.604	1522.959
736.938	1511.819
737.271	1501.228
737.605	1491.180
737.938	1481.671
738.272	1472.697
738.605	1464.252
738.938	1456.331
739.272	1448.929
739.605	1442.039
739.939	1435.656
740.272	1429.773
740.606	1424.383
740.939	1419.480
741.273	1415.056
741.606	1411.104
741.939	1407.617
742.273	1404.588
742.606	1402.008
742.940	1399.869
743.273	1398.164
743.607	1396.885
743.940	1396.023
744.273	1395.570
744.607	1395.518
744.940	1395.858
745.274	1396.582
745.607	1397.681
745.941	1399.147
746.274	1400.970
746.607	1403.142
746.941	1405.654
747.274	1408.498
747.608	1411.664
747.941	1415.144
748.275	1418.928
748.608	1423.009
748.941	1427.376
749.275	1432.022
749.608	1436.937
749.942	1442.112
750.275	1447.539
750.609	1453.207
750.942	1459.110
751.275	1465.237
751.609	1471.579
751.942	1478.128
752.276	1484.876
752.609	1491.812
752.943	1498.928
753.276	1506.215
753.609	1513.665
753.943	1521.269
754.276	1529.017
754.610	1536.901
754.943	1544.912
755.277	1553.041
755.610	1561.280
755.944	1569.620
756.277	1578.052
756.610	1586.567
756.944	1595.156
757.277	1603.811
757.611	1612.524
757.944	1621.284
758.278	1630.085
758.611	1638.916
758.944	1647.771
759.278	1656.639
759.611	1665.512
759.945	1674.382
760.278	1683.240
760.612	1692.078
760.945	1700.888
761.278	1709.660
761.612	1718.387
761.945	1727.059
762.279	1735.670
762.612	1744.210
762.946	1752.671
763.279	1761.046
763.612	1769.325
763.946	1777.502
764.279	1785.567
764.613	1793.513
764.946	1801.333
765.280	1809.018
765.613	1816.561
765.946	1823.953
766.280	1831.189
766.613	1838.259
766.947	1845.158
767.280	1851.877
767.614	1858.409
767.947	1864.748
768.280	1870.886
768.614	1876.818
768.947	1882.535
769.281	1888.033
769.614	1893.304
769.948	1898.342
770.281	1903.141
770.615	1907.695
770.948	1912.000
771.281	1916.048
771.615	1919.835
771.948	1923.355
772.282	1926.604
772.615	1929.576
772.949	1932.268
773.282	1934.674
773.615	1936.790
773.949	1938.613
774.282	1940.138
774.616	1941.362
774.949	1942.282
775.283	1942.894
775.616	1943.196
775.949	1943.185
776.283	1942.857
776.616	1942.212
776.950	1941.247
777.283	1939.961
777.617	1938.351
777.950	1936.417
778.283	1934.158
778.617	1931.572
778.950	1928.660
779.284	1925.421
779.617	1921.855
779.951	1917.962
780.284	1913.743
780.617	1909.198
780.951	1904.329
781.284	1899.136
781.618	1893.622
781.951	1887.787
782.285	1881.634
782.618	1875.165
782.951	1868.383
783.285	1861.289
783.618	1853.888
783.952	1846.181
784.285	1838.173
784.619	1829.867
784.952	1821.266
785.286	1812.375
785.619	1803.199
785.952	1793.740
786.286	1784.004
786.619	1773.996
786.953	1763.720
787.286	1753.182
787.620	1742.387
787.953	1731.341
788.286	1720.048
788.620	1708.516
788.953	1696.749
789.287	1684.754
789.620	1672.538
789.954	1660.106
790.287	1647.464
790.620	1634.620
790.954	1621.581
791.287	1608.352
791.621	1594.941
791.954	1581.354
792.288	1567.599
792.621	1553.683
792.954	1539.612
793.288	1525.394
793.621	1511.037
793.955	1496.547
794.288	1481.932
794.622	1467.198
794.955	1452.354
795.288	1437.406
795.622	1422.363
795.955	1407.230
796.289	1392.016
796.622	1376.727
796.956	1361.372
797.289	1345.956
797.623	1330.487
797.956	1314.973
798.289	1299.420
798.623	1283.835
798.956	1268.225
799.290	1252.597
799.623	1236.958
799.957	1221.314
800.290	1205.671
800.623	1190.037
800.957	1174.417
801.290	1158.818
801.624	1143.246
801.957	1127.707
802.291	1112.207
802.624	1096.751
802.957	1081.345
803.291	1065.995
803.624	1050.705
803.958	1035.482
804.291	1020.331
804.625	1005.255
804.958	990.260
805.291	975.351
805.625	960.533
805.958	945.808
806.292	931.183
806.625	916.660
806.959	902.243
807.292	887.937
807.625	873.745
807.959	859.671
808.292	845.717
808.626	831.886
808.959	818.183
809.293	804.609
809.626	791.167
809.959	777.860
810.293	764.690
810.626	751.659
810.960	738.770
811.293	726.023
811.627	713.422
811.960	700.968
812.294	688.661
812.627	676.504
812.960	664.498
813.294	652.643
813.627	640.941
813.961	629.393
814.294	617.999
814.628	606.759
814.961	595.675
815.294	584.747
815.628	573.974
815.961	563.357
816.295	552.896
816.628	542.590
816.962	532.441
817.295	522.446
817.628	512.606
817.962	502.921
818.295	493.389
818.629	484.010
818.962	474.784
819.296	465.709
819.629	456.785
819.962	448.010
820.296	439.384
820.629	430.905
820.963	422.572
821.296	414.385
821.630	406.341
821.963	398.439
822.296	390.678
822.630	383.057
822.963	375.574
823.297	368.227
823.630	361.015
823.964	353.937
824.297	346.990
824.630	340.173
824.964	333.484
825.297	326.922
825.631	320.485
825.964	314.171
826.298	307.979
826.631	301.906
826.965	295.950
827.298	290.111
827.631	284.386
827.965	278.773
828.298	273.271
828.632	267.877
828.965	262.590
829.299	257.408
829.632	252.330
829.965	247.352
830.299	242.475
830.632	237.695
830.966	233.011
831.299	228.422
831.633	223.925
831.966	219.518
832.299	215.201
832.633	210.971
832.966	206.826
833.300	202.766
833.633	198.787
833.967	194.890
834.300	191.071
834.633	187.329
834.967	183.663
835.300	180.072
835.634	176.553
835.967	173.105
836.301	169.727
836.634	166.417
836.967	163.174
837.301	159.996
837.634	156.882
837.968	153.831
838.301	150.841
838.635	147.911
838.968	145.039
839.301	142.225
839.635	139.466
839.968	136.763
840.302	134.113
840.635	131.516
840.969	128.970
841.302	126.474
841.636	124.027
841.969	121.629
842.302	119.277
842.636	116.971
842.969	114.711
843.303	112.494
843.636	110.320
843.970	108.188
844.303	106.098
844.636	104.048
844.970	102.037
845.303	100.064
845.637	98.130
845.970	96.232
846.304	94.370
846.637	92.544
846.970	90.752
847.304	88.994
847.637	87.270
847.971	85.578
848.304	83.917
848.638	82.288
848.971	80.689
849.304	79.120
849.638	77.580
849.971	76.069
850.305	74.585
850.638	73.130
850.972	71.701
851.305	70.298
851.638	68.922
851.972	67.571
852.305	66.244
852.639	64.942
852.972	63.664
853.306	62.410
853.639	61.178
853.972	59.969
854.306	58.782
854.639	57.616
854.973	56.472
855.306	55.349
855.640	54.246
855.973	53.164
856.307	52.101
856.640	51.057
856.973	50.033
857.307	49.027
857.640	48.040
857.974	47.070
858.307	46.119
858.641	45.184
858.974	44.267
859.307	43.367
859.641	42.483
859.974	41.615
860.308	40.763
860.641	39.927
860.975	39.106
861.308	38.300
861.641	37.509
861.975	36.733
862.308	35.971
862.642	35.223
862.975	34.489
863.309	33.769
863.642	33.062
863.975	32.368
864.309	31.687
864.642	31.018
864.976	30.363
865.309	29.719
865.643	29.088
865.976	28.469
866.309	27.861
866.643	27.265
866.976	26.680
867.310	26.106
867.643	25.543
867.977	24.991
868.310	24.449
868.643	23.918
868.977	23.397
869.310	22.886
869.644	22.385
869.977	21.894
870.311	21.412
870.644	20.940
870.978	20.477
871.311	20.023
871.644	19.577
871.978	19.141
872.311	18.713
872.645	18.294
872.978	17.883
873.312	17.480
873.645	17.086
873.978	16.699
874.312	16.320
874.645	15.948
874.979	15.584
875.312	15.228
875.646	14.879
875.979	14.537
876.312	14.201
876.646	13.873
876.979	13.552
877.313	13.237
877.646	12.929
877.980	12.627
878.313	12.331
878.646	12.041
878.980	11.758
879.313	11.481
879.647	11.209
879.980	10.943
880.314	10.683
880.647	10.428
880.980	10.179
881.314	9.935
881.647	9.697
881.981	9.463
882.314	9.235
882.648	9.011
882.981	8.792
883.314	8.578
883.648	8.369
883.981	8.165
884.315	7.964
884.648	7.769
884.982	7.577
885.315	7.390
885.649	7.207
885.982	7.028
886.315	6.853
886.649	6.683
886.982	6.515
887.316	6.352
887.649	6.193
887.983	6.037
888.316	5.884
888.649	5.735
888.983	5.590
889.316	5.447
889.650	5.308
889.983	5.173
890.317	5.040
890.650	4.911
890.983	4.784
891.317	4.661
891.650	4.540
891.984	4.423
892.317	4.308
892.651	4.195
892.984	4.086
893.317	3.979
893.651	3.874
893.984	3.772
894.318	3.673
894.651	3.576
894.985	3.481
895.318	3.389
895.651	3.299
895.985	3.211
896.318	3.125
896.652	3.041
896.985	2.959
897.319	2.880
897.652	2.802
897.985	2.726
898.319	2.652
898.652	2.580
898.986	2.510
899.319	2.441
899.653	2.374
899.986	2.309
900.320	2.246
900.653	2.184
900.986	2.124
901.320	2.065
901.653	2.008
901.987	1.952
902.320	1.897
902.654	1.845
902.987	1.793
903.320	1.743
903.654	1.694
903.987	1.646
904.321	1.599
904.654	1.554
904.988	1.510
905.321	1.467
905.654	1.425
905.988	1.385
906.321	1.345
906.655	1.307
906.988	1.269
907.322	1.233
907.655	1.197
907.988	1.162
908.322	1.129
908.655	1.096
908.989	1.064
909.322	1.033
909.656	1.003
909.989	0.973
910.322	0.945
910.656	0.917
910.989	0.890
911.323	0.864
911.656	0.838
911.990	0.813
912.323	0.789
912.656	0.766
912.990	0.743
913.323	0.721
913.657	0.699
913.990	0.678
914.324	0.658
914.657	0.638
914.991	0.619
915.324	0.600
915.657	0.582
915.991	0.564
916.324	0.547
916.658	0.530
916.991	0.514
917.325	0.498
917.658	0.483
917.991	0.468
918.325	0.454
918.658	0.440
918.992	0.426
919.325	0.413
919.659	0.400
919.992	0.387
920.325	0.375
920.659	0.364
920.992	0.352
921.326	0.341
921.659	0.330
921.993	0.320
922.326	0.310
922.659	0.300
922.993	0.291
923.326	0.281
923.660	0.272
923.993	0.264
924.327	0.255
924.660	0.247
924.993	0.239
925.327	0.231
925.660	0.224
925.994	0.217
926.327	0.210
926.661	0.203
926.994	0.196
927.327	0.190
927.661	0.184
927.994	0.178
928.328	0.172
928.661	0.166
928.995	0.161
929.328	0.156
929.662	0.151
929.995	0.146
930.328	0.141
930.662	0.136
930.995	0.132
931.329	0.127
931.662	0.123
931.996	0.119
932.329	0.115
932.662	0.111
932.996	0.107
933.329	0.104
933.663	0.100
933.996	0.097
934.330	0.094
934.663	0.090
934.996	0.087
935.330	0.084
935.663	0.081
935.997	0.079
936.330	0.076
936.664	0.073
936.997	0.071
937.330	0.068
937.664	0.066
937.997	0.064
938.331	0.062
938.664	0.059
938.998	0.057
939.331	0.055
939.664	0.054
939.998	0.052
940.331	0.050
940.665	0.048
940.998	0.046
941.332	0.045
941.665	0.043
941.998	0.042
942.332	0.040
942.665	0.039
942.999	0.037
943.332	0.036
943.666	0.035
943.999	0.034
944.333	0.032
944.666	0.031
944.999	0.030
945.333	0.029
945.666	0.028
946.000	0.027
946.333	0.026
946.667	0.025
947.000	0.024
947.333	0.023
947.667	0.022
948.000	0.022
948.334	0.021
948.667	0.020
949.001	0.019
949.334	0.019
949.667	0.018
950.001	0.017
950.334	0.017
950.668	0.016
951.001	0.015
951.335	0.015
951.668	0.014
952.001	0.014
952.335	0.013
952.668	0.013
953.002	0.012
953.335	0.012
953.669	0.011
954.002	0.011
954.335	0.011
954.669	0.010
955.002	0.010
955.336	0.009
955.669	0.009
956.003	0.009
956.336	0.008
956.669	0.008
957.003	0.008
957.336	0.007
957.670	0.007
958.003	0.007
958.337	0.007
958.670	0.006
959.004	0.006
959.337	0.006
959.670	0.006
960.004	0.005
960.337	0.005
960.671	0.005
961.004	0.005
961.338	0.005
961.671	0.004
962.004	0.004
962.338	0.004
962.671	0.004
963.005	0.004
963.338	0.004
963.672	0.004
964.005	0.003
964.338	0.003
964.672	0.003
965.005	0.003
965.339	0.003
965.672	0.003
966.006	0.003
966.339	0.003
966.672	0.002
967.006	0.002
967.339	0.002
967.673	0.002
968.006	0.002
968.340	0.002
968.673	0.002
969.006	0.002
969.340	0.002
969.673	0.002
970.007	0.002
970.340	0.002
970.674	0.002
971.007	0.001
971.340	0.001
971.674	0.001
972.007	0.001
972.341	0.001
972.674	0.001
973.008	0.001
973.341	0.001
973.675	0.001
974.008	0.001
974.341	0.001
974.675	0.001
975.008	0.001
975.342	0.001
975.675	0.001
976.009	0.001
976.342	0.001
976.675	0.001
977.009	0.001
977.342	0.001
977.676	0.001
978.009	0.001
978.343	0.001
978.676	0.001
979.009	0.001
979.343	0.001
979.676	0.000
980.010	0.000
980.343	0.000
980.677	0.000
981.010	0.000
981.343	0.000
981.677	0.000
982.010	0.000
982.344	0.000
982.677	0.000
983.011	0.000
983.344	0.000
983.677	0.000
984.011	0.000
984.344	0.000
984.678	0.000
985.011	0.000
985.345	0.000
985.678	0.000
986.011	0.000
986.345	0.000
986.678	0.000
987.012	0.000
987.345	0.000
987.679	0.000
988.012	0.000
988.346	0.000
988.679	0.000
989.012	0.000
989.346	0.000
989.679	0.000
990.013	0.000
990.346	0.000
990.680	0.000
991.013	0.000
991.346	0.000
991.680	0.000
992.013	0.000
992.347	0.000
992.680	0.000
993.014	0.000
993.347	0.000
993.680	0.000
994.014	0.000
994.347	0.000
994.681	0.000
995.014	0.000
995.348	0.000
995.681	0.000
996.014	0.000
996.348	0.000
996.681	0.000
997.015	0.000
997.348	0.000
997.682	0.000
998.015	0.000
998.348	0.000
998.682	0.000
999.015	0.000
999.349	0.000
999.682	0.000
1000.016	0.000
1000.349	0.000
1000.682	0.000
1001.016	0.000
1001.349	0.000
1001.683	0.000
1002.016	0.000
1002.350	0.000
1002.683	0.000
1003.017	0.000
1003.350	0.000
1003.683	0.000
1004.017	0.000
1004.350	0.000
1004.684	0.000
1005.017	0.000
1005.351	0.000
1005.684	0.000
1006.017	0.000
1006.351	0.000
1006.684	0.000
1007.018	0.000
1007.351	0.000
1007.685	0.000
1008.018	0.000
1008.351	0.000
1008.685	0.000
1009.018	0.000
1009.352	0.000
1009.685	0.000
1010.019	0.000
1010.352	0.000
1010.685	0.000
1011.019	0.000
1011.352	0.000
1011.686	0.000
1012.019	0.000
1012.353	0.000
1012.686	0.000
1013.019	0.000
1013.353	0.000
1013.686	0.000
1014.020	0.000
1014.353	0.000
1014.687	0.000
1015.020	0.000
1015.353	0.000
1015.687	0.000
1016.020	0.000
1016.354	0.000
1016.687	0.000
1017.021	0.000
1017.354	0.000
1017.688	0.000
1018.021	0.000
1018.354	0.000
1018.688	0.000
1019.021	0.000
1019.355	0.000
1019.688	0.000
1020.022	0.000
1020.355	0.000
1020.688	0.000
1021.022	0.000
1021.355	0.000
1021.689	0.000
1022.022	0.000
1022.356	0.000
1022.689	0.000
