Data from repetition_0.txt_16-47-09-365.txt Node
Date: Sun Jun 13 23:27:09 CET 2021
User: fcossio
Spectrometer: FLMS15016
Trigger mode: 0
Integration Time (sec): 3.000000E-1Scans to average: 1
Electric dark correction enabled: true
Nonlinearity correction enabled: false
Boxcar width: 0
XAxis mode: Wavelengths
Number of Pixels in Spectrum: 2048
>>>>>Begin Spectral Data<<<<<
340.154	0.000
340.487	0.000
340.821	0.000
341.154	0.000
341.488	0.000
341.821	0.000
342.155	0.000
342.488	0.000
342.821	0.000
343.155	0.000
343.488	0.000
343.822	0.000
344.155	0.000
344.489	0.000
344.822	0.000
345.155	0.000
345.489	0.000
345.822	0.000
346.156	0.000
346.489	0.000
346.823	0.000
347.156	0.000
347.490	0.000
347.823	0.000
348.156	0.000
348.490	0.000
348.823	0.000
349.157	0.000
349.490	0.000
349.824	0.000
350.157	0.000
350.490	0.000
350.824	0.000
351.157	0.000
351.491	0.000
351.824	0.000
352.158	0.000
352.491	0.000
352.824	0.000
353.158	0.000
353.491	0.000
353.825	0.000
354.158	0.000
354.492	0.000
354.825	0.000
355.158	0.000
355.492	0.000
355.825	0.000
356.159	0.000
356.492	0.000
356.826	0.000
357.159	0.000
357.492	0.000
357.826	0.000
358.159	0.000
358.493	0.000
358.826	0.000
359.160	0.000
359.493	0.000
359.826	0.000
360.160	0.000
360.493	0.000
360.827	0.000
361.160	0.000
361.494	0.000
361.827	0.000
362.161	0.000
362.494	0.000
362.827	0.000
363.161	0.000
363.494	0.000
363.828	0.000
364.161	0.000
364.495	0.000
364.828	0.000
365.161	0.000
365.495	0.000
365.828	0.000
366.162	0.000
366.495	0.000
366.829	0.000
367.162	0.000
367.495	0.000
367.829	0.000
368.162	0.000
368.496	0.000
368.829	0.000
369.163	0.000
369.496	0.000
369.829	0.000
370.163	0.000
370.496	0.000
370.830	0.000
371.163	0.000
371.497	0.000
371.830	0.000
372.163	0.000
372.497	0.000
372.830	0.000
373.164	0.000
373.497	0.000
373.831	0.000
374.164	0.000
374.497	0.000
374.831	0.000
375.164	0.000
375.498	0.000
375.831	0.000
376.165	0.000
376.498	0.000
376.832	0.000
377.165	0.000
377.498	0.000
377.832	0.000
378.165	0.000
378.499	0.000
378.832	0.000
379.166	0.000
379.499	0.000
379.832	0.000
380.166	0.000
380.499	0.000
380.833	0.000
381.166	0.000
381.500	0.000
381.833	0.000
382.166	0.000
382.500	0.000
382.833	0.000
383.167	0.000
383.500	0.000
383.834	0.000
384.167	0.000
384.500	0.000
384.834	0.000
385.167	0.000
385.501	0.000
385.834	0.000
386.168	0.000
386.501	0.000
386.834	0.000
387.168	0.000
387.501	0.000
387.835	0.000
388.168	0.000
388.502	0.000
388.835	0.000
389.168	0.000
389.502	0.000
389.835	0.000
390.169	0.000
390.502	0.000
390.836	0.000
391.169	0.000
391.503	0.000
391.836	0.000
392.169	0.000
392.503	0.000
392.836	0.000
393.170	0.000
393.503	0.000
393.837	0.000
394.170	0.000
394.503	0.000
394.837	0.000
395.170	0.000
395.504	0.000
395.837	0.000
396.171	0.000
396.504	0.000
396.837	0.000
397.171	0.000
397.504	0.000
397.838	0.000
398.171	0.000
398.505	0.000
398.838	0.000
399.171	0.000
399.505	0.000
399.838	0.000
400.172	0.000
400.505	0.000
400.839	0.000
401.172	0.000
401.505	0.000
401.839	0.000
402.172	0.000
402.506	0.000
402.839	0.000
403.173	0.000
403.506	0.000
403.839	0.000
404.173	0.000
404.506	0.000
404.840	0.000
405.173	0.000
405.507	0.000
405.840	0.000
406.174	0.000
406.507	0.000
406.840	0.000
407.174	0.000
407.507	0.000
407.841	0.000
408.174	0.000
408.508	0.000
408.841	0.000
409.174	0.000
409.508	0.000
409.841	0.000
410.175	0.000
410.508	0.000
410.842	0.000
411.175	0.000
411.508	0.000
411.842	0.000
412.175	0.000
412.509	0.000
412.842	0.000
413.176	0.000
413.509	0.000
413.842	0.000
414.176	0.000
414.509	0.000
414.843	0.000
415.176	0.000
415.510	0.000
415.843	0.000
416.176	0.000
416.510	0.000
416.843	0.000
417.177	0.000
417.510	0.000
417.844	0.000
418.177	0.000
418.510	0.000
418.844	0.000
419.177	0.000
419.511	0.000
419.844	0.000
420.178	0.000
420.511	0.000
420.845	0.000
421.178	0.000
421.511	0.000
421.845	0.000
422.178	0.000
422.512	0.000
422.845	0.000
423.179	0.000
423.512	0.000
423.845	0.000
424.179	0.000
424.512	0.000
424.846	0.000
425.179	0.000
425.513	0.000
425.846	0.000
426.179	0.000
426.513	0.000
426.846	0.000
427.180	0.000
427.513	0.000
427.847	0.000
428.180	0.000
428.513	0.000
428.847	0.000
429.180	0.000
429.514	0.000
429.847	0.000
430.181	0.000
430.514	0.000
430.847	0.000
431.181	0.000
431.514	0.000
431.848	0.000
432.181	0.000
432.515	0.000
432.848	0.000
433.181	0.000
433.515	0.000
433.848	0.000
434.182	0.000
434.515	0.000
434.849	0.000
435.182	0.000
435.516	0.000
435.849	0.000
436.182	0.000
436.516	0.000
436.849	0.000
437.183	0.000
437.516	0.000
437.850	0.000
438.183	0.000
438.516	0.000
438.850	0.000
439.183	0.000
439.517	0.000
439.850	0.000
440.184	0.000
440.517	0.000
440.850	0.000
441.184	0.000
441.517	0.000
441.851	0.000
442.184	0.000
442.518	0.000
442.851	0.000
443.184	0.000
443.518	0.000
443.851	0.000
444.185	0.000
444.518	0.000
444.852	0.000
445.185	0.000
445.518	0.000
445.852	0.000
446.185	0.000
446.519	0.000
446.852	0.000
447.186	0.000
447.519	0.000
447.852	0.000
448.186	0.000
448.519	0.000
448.853	0.000
449.186	0.000
449.520	0.000
449.853	0.001
450.187	0.001
450.520	0.001
450.853	0.001
451.187	0.001
451.520	0.001
451.854	0.001
452.187	0.001
452.521	0.001
452.854	0.001
453.187	0.001
453.521	0.002
453.854	0.002
454.188	0.002
454.521	0.002
454.855	0.002
455.188	0.003
455.521	0.003
455.855	0.003
456.188	0.004
456.522	0.004
456.855	0.004
457.189	0.005
457.522	0.005
457.855	0.006
458.189	0.006
458.522	0.007
458.856	0.008
459.189	0.008
459.523	0.009
459.856	0.010
460.189	0.011
460.523	0.012
460.856	0.014
461.190	0.015
461.523	0.016
461.857	0.018
462.190	0.020
462.523	0.021
462.857	0.024
463.190	0.026
463.524	0.028
463.857	0.031
464.191	0.034
464.524	0.037
464.858	0.040
465.191	0.044
465.524	0.048
465.858	0.053
466.191	0.058
466.525	0.063
466.858	0.068
467.192	0.075
467.525	0.081
467.858	0.089
468.192	0.097
468.525	0.105
468.859	0.115
469.192	0.125
469.526	0.136
469.859	0.148
470.192	0.160
470.526	0.174
470.859	0.189
471.193	0.206
471.526	0.223
471.860	0.242
472.193	0.263
472.526	0.285
472.860	0.309
473.193	0.335
473.527	0.363
473.860	0.393
474.194	0.425
474.527	0.460
474.860	0.497
475.194	0.538
475.527	0.581
475.861	0.628
476.194	0.678
476.528	0.732
476.861	0.791
477.194	0.853
477.528	0.920
477.861	0.992
478.195	1.069
478.528	1.152
478.862	1.240
479.195	1.336
479.529	1.437
479.862	1.546
480.195	1.663
480.529	1.788
480.862	1.922
481.196	2.064
481.529	2.217
481.863	2.380
482.196	2.554
482.529	2.740
482.863	2.938
483.196	3.150
483.530	3.376
483.863	3.616
484.197	3.872
484.530	4.145
484.863	4.436
485.197	4.745
485.530	5.074
485.864	5.424
486.197	5.796
486.531	6.191
486.864	6.611
487.197	7.056
487.531	7.529
487.864	8.031
488.198	8.563
488.531	9.128
488.865	9.726
489.198	10.359
489.531	11.030
489.865	11.740
490.198	12.491
490.532	13.285
490.865	14.125
491.199	15.013
491.532	15.950
491.865	16.941
492.199	17.986
492.532	19.089
492.866	20.252
493.199	21.479
493.533	22.771
493.866	24.133
494.200	25.567
494.533	27.077
494.866	28.665
495.200	30.336
495.533	32.092
495.867	33.939
496.200	35.878
496.534	37.915
496.867	40.053
497.200	42.297
497.534	44.650
497.867	47.117
498.201	49.703
498.534	52.412
498.868	55.249
499.201	58.218
499.534	61.326
499.868	64.575
500.201	67.973
500.535	71.524
500.868	75.234
501.202	79.107
501.535	83.151
501.868	87.369
502.202	91.769
502.535	96.356
502.869	101.136
503.202	106.115
503.536	111.300
503.869	116.695
504.202	122.309
504.536	128.147
504.869	134.215
505.203	140.521
505.536	147.070
505.870	153.869
506.203	160.925
506.536	168.244
506.870	175.833
507.203	183.699
507.537	191.848
507.870	200.287
508.204	209.022
508.537	218.060
508.871	227.407
509.204	237.070
509.537	247.055
509.871	257.369
510.204	268.017
510.538	279.006
510.871	290.341
511.205	302.029
511.538	314.075
511.871	326.485
512.205	339.263
512.538	352.415
512.872	365.946
513.205	379.861
513.539	394.163
513.872	408.858
514.205	423.949
514.539	439.439
514.872	455.332
515.206	471.632
515.539	488.339
515.873	505.458
516.206	522.990
516.539	540.936
516.873	559.297
517.206	578.075
517.540	597.270
517.873	616.880
518.207	636.907
518.540	657.349
518.873	678.203
519.207	699.469
519.540	721.144
519.874	743.224
520.207	765.706
520.541	788.586
520.874	811.858
521.207	835.519
521.541	859.561
521.874	883.978
522.208	908.764
522.541	933.910
522.875	959.408
523.208	985.250
523.542	1011.426
523.875	1037.926
524.208	1064.738
524.542	1091.853
524.875	1119.257
525.209	1146.938
525.542	1174.884
525.876	1203.079
526.209	1231.510
526.542	1260.162
526.876	1289.019
527.209	1318.064
527.543	1347.282
527.876	1376.655
528.210	1406.164
528.543	1435.792
528.876	1465.519
529.210	1495.327
529.543	1525.195
529.877	1555.102
530.210	1585.029
530.544	1614.953
530.877	1644.853
531.210	1674.707
531.544	1704.493
531.877	1734.187
532.211	1763.768
532.544	1793.211
532.878	1822.493
533.211	1851.590
533.544	1880.479
533.878	1909.134
534.211	1937.533
534.545	1965.650
534.878	1993.462
535.212	2020.944
535.545	2048.071
535.878	2074.820
536.212	2101.166
536.545	2127.085
536.879	2152.553
537.212	2177.547
537.546	2202.043
537.879	2226.017
538.213	2249.448
538.546	2272.311
538.879	2294.586
539.213	2316.250
539.546	2337.282
539.880	2357.662
540.213	2377.368
540.547	2396.382
540.880	2414.684
541.213	2432.256
541.547	2449.079
541.880	2465.137
542.214	2480.414
542.547	2494.892
542.881	2508.558
543.214	2521.398
543.547	2533.398
543.881	2544.545
544.214	2554.829
544.548	2564.238
544.881	2572.763
545.215	2580.395
545.548	2587.126
545.881	2592.949
546.215	2597.858
546.548	2601.849
546.882	2604.918
547.215	2607.061
547.549	2608.277
547.882	2608.565
548.215	2607.925
548.549	2606.359
548.882	2603.868
549.216	2600.457
549.549	2596.130
549.883	2590.892
550.216	2584.749
550.549	2577.709
550.883	2569.781
551.216	2560.974
551.550	2551.299
551.883	2540.768
552.217	2529.391
552.550	2517.184
552.884	2504.161
553.217	2490.337
553.550	2475.727
553.884	2460.350
554.217	2444.224
554.551	2427.366
554.884	2409.797
555.218	2391.537
555.551	2372.608
555.884	2353.031
556.218	2332.830
556.551	2312.026
556.885	2290.646
557.218	2268.713
557.552	2246.253
557.885	2223.291
558.218	2199.855
558.552	2175.971
558.885	2151.666
559.219	2126.970
559.552	2101.910
559.886	2076.516
560.219	2050.816
560.552	2024.841
560.886	1998.620
561.219	1972.184
561.553	1945.564
561.886	1918.790
562.220	1891.894
562.553	1864.907
562.886	1837.861
563.220	1810.787
563.553	1783.717
563.887	1756.684
564.220	1729.719
564.554	1702.855
564.887	1676.124
565.220	1649.558
565.554	1623.189
565.887	1597.050
566.221	1571.172
566.554	1545.589
566.888	1520.330
567.221	1495.430
567.555	1470.919
567.888	1446.829
568.221	1423.191
568.555	1400.037
568.888	1377.397
569.222	1355.302
569.555	1333.783
569.889	1312.870
570.222	1292.592
570.555	1272.979
570.889	1254.060
571.222	1235.864
571.556	1218.418
571.889	1201.751
572.223	1185.889
572.556	1170.860
572.889	1156.690
573.223	1143.404
573.556	1131.026
573.890	1119.582
574.223	1109.095
574.557	1099.588
574.890	1091.082
575.223	1083.598
575.557	1077.158
575.890	1071.781
576.224	1067.485
576.557	1064.287
576.891	1062.204
577.224	1061.252
577.557	1061.444
577.891	1062.795
578.224	1065.314
578.558	1069.015
578.891	1073.904
579.225	1079.991
579.558	1087.282
579.892	1095.781
580.225	1105.493
580.558	1116.419
580.892	1128.559
581.225	1141.913
581.559	1156.477
581.892	1172.246
582.226	1189.214
582.559	1207.372
582.892	1226.710
583.226	1247.217
583.559	1268.877
583.893	1291.676
584.226	1315.594
584.560	1340.612
584.893	1366.708
585.226	1393.858
585.560	1422.035
585.893	1451.213
586.227	1481.359
586.560	1512.443
586.894	1544.430
587.227	1577.283
587.560	1610.965
587.894	1645.434
588.227	1680.649
588.561	1716.566
588.894	1753.139
589.228	1790.319
589.561	1828.058
589.894	1866.303
590.228	1905.002
590.561	1944.101
590.895	1983.543
591.228	2023.271
591.562	2063.227
591.895	2103.350
592.228	2143.579
592.562	2183.852
592.895	2224.107
593.229	2264.280
593.562	2304.305
593.896	2344.119
594.229	2383.656
594.563	2422.851
594.896	2461.637
595.229	2499.949
595.563	2537.721
595.896	2574.888
596.230	2611.385
596.563	2647.149
596.897	2682.114
597.230	2716.220
597.563	2749.403
597.897	2781.604
598.230	2812.763
598.564	2842.823
598.897	2871.727
599.231	2899.422
599.564	2925.854
599.897	2950.973
600.231	2974.731
600.564	2997.081
600.898	3017.980
601.231	3037.387
601.565	3055.263
601.898	3071.571
602.231	3086.279
602.565	3099.356
602.898	3110.775
603.232	3120.510
603.565	3128.542
603.899	3134.850
604.232	3139.421
604.565	3142.242
604.899	3143.305
605.232	3142.604
605.566	3140.136
605.899	3135.903
606.233	3129.908
606.566	3122.160
606.899	3112.668
607.233	3101.447
607.566	3088.512
607.900	3073.885
608.233	3057.587
608.567	3039.645
608.900	3020.086
609.234	2998.942
609.567	2976.248
609.900	2952.039
610.234	2926.353
610.567	2899.234
610.901	2870.722
611.234	2840.865
611.568	2809.710
611.901	2777.305
612.234	2743.701
612.568	2708.952
612.901	2673.110
613.235	2636.230
613.568	2598.370
613.902	2559.586
614.235	2519.935
614.568	2479.477
614.902	2438.271
615.235	2396.375
615.569	2353.850
615.902	2310.756
616.236	2267.152
616.569	2223.097
616.902	2178.652
617.236	2133.874
617.569	2088.821
617.903	2043.552
618.236	1998.123
618.570	1952.588
618.903	1907.004
619.236	1861.424
619.570	1815.899
619.903	1770.481
620.237	1725.218
620.570	1680.160
620.904	1635.352
621.237	1590.839
621.570	1546.665
621.904	1502.870
622.237	1459.495
622.571	1416.576
622.904	1374.150
623.238	1332.250
623.571	1290.909
623.905	1250.158
624.238	1210.023
624.571	1170.532
624.905	1131.708
625.238	1093.575
625.572	1056.152
625.905	1019.459
626.239	983.512
626.572	948.326
626.905	913.914
627.239	880.288
627.572	847.457
627.906	815.430
628.239	784.212
628.573	753.809
628.906	724.224
629.239	695.458
629.573	667.513
629.906	640.386
630.240	614.076
630.573	588.580
630.907	563.892
631.240	540.008
631.573	516.919
631.907	494.619
632.240	473.099
632.574	452.349
632.907	432.359
633.241	413.118
633.574	394.614
633.907	376.835
634.241	359.769
634.574	343.401
634.908	327.719
635.241	312.709
635.575	298.356
635.908	284.645
636.241	271.562
636.575	259.092
636.908	247.220
637.242	235.932
637.575	225.211
637.909	215.043
638.242	205.413
638.576	196.307
638.909	187.709
639.242	179.606
639.576	171.983
639.909	164.826
640.243	158.121
640.576	151.855
640.910	146.015
641.243	140.588
641.576	135.562
641.910	130.924
642.243	126.664
642.577	122.770
642.910	119.232
643.244	116.038
643.577	113.179
643.910	110.647
644.244	108.431
644.577	106.523
644.911	104.916
645.244	103.602
645.578	102.574
645.911	101.825
646.244	101.349
646.578	101.141
646.911	101.195
647.245	101.507
647.578	102.073
647.912	102.888
648.245	103.951
648.578	105.257
648.912	106.804
649.245	108.591
649.579	110.616
649.912	112.879
650.246	115.377
650.579	118.111
650.912	121.082
651.246	124.289
651.579	127.734
651.913	131.418
652.246	135.343
652.580	139.510
652.913	143.922
653.247	148.582
653.580	153.492
653.913	158.656
654.247	164.078
654.580	169.761
654.914	175.709
655.247	181.927
655.581	188.419
655.914	195.191
656.247	202.248
656.581	209.593
656.914	217.235
657.248	225.176
657.581	233.425
657.915	241.986
658.248	250.866
658.581	260.072
658.915	269.608
659.248	279.483
659.582	289.701
659.915	300.271
660.249	311.199
660.582	322.491
660.915	334.155
661.249	346.196
661.582	358.622
661.916	371.439
662.249	384.654
662.583	398.274
662.916	412.305
663.249	426.753
663.583	441.625
663.916	456.928
664.250	472.666
664.583	488.846
664.917	505.473
665.250	522.554
665.583	540.093
665.917	558.095
666.250	576.566
666.584	595.509
666.917	614.929
667.251	634.829
667.584	655.214
667.918	676.086
668.251	697.448
668.584	719.303
668.918	741.652
669.251	764.498
669.585	787.841
669.918	811.683
670.252	836.023
670.585	860.861
670.918	886.196
671.252	912.028
671.585	938.353
671.919	965.171
672.252	992.478
672.586	1020.270
672.919	1048.544
673.252	1077.294
673.586	1106.515
673.919	1136.202
674.253	1166.347
674.586	1196.943
674.920	1227.983
675.253	1259.458
675.586	1291.359
675.920	1323.675
676.253	1356.396
676.587	1389.510
676.920	1423.007
677.254	1456.872
677.587	1491.094
677.920	1525.657
678.254	1560.546
678.587	1595.748
678.921	1631.245
679.254	1667.020
679.588	1703.057
679.921	1739.337
680.254	1775.842
680.588	1812.552
680.921	1849.448
681.255	1886.508
681.588	1923.713
681.922	1961.039
682.255	1998.466
682.589	2035.970
682.922	2073.528
683.255	2111.116
683.589	2148.711
683.922	2186.287
684.256	2223.821
684.589	2261.285
684.923	2298.656
685.256	2335.906
685.589	2373.010
685.923	2409.941
686.256	2446.672
686.590	2483.176
686.923	2519.426
687.257	2555.396
687.590	2591.058
687.923	2626.383
688.257	2661.347
688.590	2695.920
688.924	2730.076
689.257	2763.787
689.591	2797.028
689.924	2829.770
690.257	2861.989
690.591	2893.656
690.924	2924.747
691.258	2955.236
691.591	2985.098
691.925	3014.307
692.258	3042.841
692.591	3070.675
692.925	3097.785
693.258	3124.150
693.592	3149.747
693.925	3174.555
694.259	3198.553
694.592	3221.721
694.925	3244.041
695.259	3265.493
695.592	3286.060
695.926	3305.726
696.259	3324.475
696.593	3342.291
696.926	3359.160
697.260	3375.071
697.593	3390.009
697.926	3403.965
698.260	3416.929
698.593	3428.890
698.927	3439.842
699.260	3449.777
699.594	3458.689
699.927	3466.574
700.260	3473.427
700.594	3479.247
700.927	3484.031
701.261	3487.779
701.594	3490.492
701.928	3492.172
702.261	3492.821
702.594	3492.443
702.928	3491.044
703.261	3488.629
703.595	3485.206
703.928	3480.782
704.262	3475.368
704.595	3468.973
704.928	3461.609
705.262	3453.287
705.595	3444.021
705.929	3433.826
706.262	3422.716
706.596	3410.707
706.929	3397.815
707.262	3384.060
707.596	3369.458
707.929	3354.030
708.263	3337.795
708.596	3320.773
708.930	3302.987
709.263	3284.457
709.596	3265.207
709.930	3245.260
710.263	3224.639
710.597	3203.369
710.930	3181.474
711.264	3158.978
711.597	3135.908
711.931	3112.289
712.264	3088.147
712.597	3063.509
712.931	3038.400
713.264	3012.847
713.598	2986.878
713.931	2960.519
714.265	2933.797
714.598	2906.739
714.931	2879.371
715.265	2851.722
715.598	2823.817
715.932	2795.684
716.265	2767.348
716.599	2738.837
716.932	2710.176
717.265	2681.392
717.599	2652.509
717.932	2623.553
718.266	2594.550
718.599	2565.523
718.933	2536.496
719.266	2507.495
719.599	2478.541
719.933	2449.657
720.266	2420.867
720.600	2392.191
720.933	2363.652
721.267	2335.269
721.600	2307.064
721.933	2279.054
722.267	2251.261
722.600	2223.701
722.934	2196.394
723.267	2169.355
723.601	2142.601
723.934	2116.149
724.267	2090.014
724.601	2064.210
724.934	2038.750
725.268	2013.649
725.601	1988.919
725.935	1964.573
726.268	1940.620
726.602	1917.072
726.935	1893.939
727.268	1871.231
727.602	1848.955
727.935	1827.121
728.269	1805.735
728.602	1784.805
728.936	1764.336
729.269	1744.335
729.602	1724.807
729.936	1705.755
730.269	1687.184
730.603	1669.097
730.936	1651.498
731.270	1634.388
731.603	1617.770
731.936	1601.644
732.270	1586.011
732.603	1570.873
732.937	1556.228
733.270	1542.077
733.604	1528.418
733.937	1515.250
734.270	1502.572
734.604	1490.381
734.937	1478.675
735.271	1467.451
735.604	1456.706
735.938	1446.437
736.271	1436.640
736.604	1427.311
736.938	1418.445
737.271	1410.040
737.605	1402.089
737.938	1394.587
738.272	1387.531
738.605	1380.914
738.938	1374.730
739.272	1368.975
739.605	1363.643
739.939	1358.727
740.272	1354.222
740.606	1350.121
740.939	1346.418
741.273	1343.107
741.606	1340.181
741.939	1337.634
742.273	1335.459
742.606	1333.650
742.940	1332.199
743.273	1331.101
743.607	1330.348
743.940	1329.934
744.273	1329.852
744.607	1330.095
744.940	1330.656
745.274	1331.528
745.607	1332.705
745.941	1334.180
746.274	1335.946
746.607	1337.996
746.941	1340.323
747.274	1342.920
747.608	1345.782
747.941	1348.901
748.275	1352.270
748.608	1355.882
748.941	1359.732
749.275	1363.812
749.608	1368.116
749.942	1372.637
750.275	1377.369
750.609	1382.305
750.942	1387.438
751.275	1392.762
751.609	1398.271
751.942	1403.958
752.276	1409.817
752.609	1415.841
752.943	1422.024
753.276	1428.359
753.609	1434.840
753.943	1441.461
754.276	1448.215
754.610	1455.097
754.943	1462.098
755.277	1469.214
755.610	1476.438
755.944	1483.763
756.277	1491.183
756.610	1498.692
756.944	1506.284
757.277	1513.951
757.611	1521.688
757.944	1529.489
758.278	1537.346
758.611	1545.253
758.944	1553.205
759.278	1561.194
759.611	1569.214
759.945	1577.258
760.278	1585.321
760.612	1593.395
760.945	1601.474
761.278	1609.552
761.612	1617.622
761.945	1625.677
762.279	1633.712
762.612	1641.718
762.946	1649.691
763.279	1657.622
763.612	1665.506
763.946	1673.336
764.279	1681.106
764.613	1688.808
764.946	1696.437
765.280	1703.985
765.613	1711.447
765.946	1718.815
766.280	1726.083
766.613	1733.245
766.947	1740.294
767.280	1747.224
767.614	1754.028
767.947	1760.700
768.280	1767.233
768.614	1773.622
768.947	1779.860
769.281	1785.941
769.614	1791.859
769.948	1797.608
770.281	1803.181
770.615	1808.574
770.948	1813.780
771.281	1818.793
771.615	1823.609
771.948	1828.220
772.282	1832.623
772.615	1836.811
772.949	1840.780
773.282	1844.524
773.615	1848.039
773.949	1851.319
774.282	1854.361
774.616	1857.158
774.949	1859.708
775.283	1862.006
775.616	1864.048
775.949	1865.829
776.283	1867.346
776.616	1868.596
776.950	1869.575
777.283	1870.280
777.617	1870.708
777.950	1870.855
778.283	1870.720
778.617	1870.300
778.950	1869.592
779.284	1868.594
779.617	1867.306
779.951	1865.723
780.284	1863.847
780.617	1861.674
780.951	1859.205
781.284	1856.438
781.618	1853.372
781.951	1850.008
782.285	1846.344
782.618	1842.382
782.951	1838.121
783.285	1833.562
783.618	1828.705
783.952	1823.551
784.285	1818.102
784.619	1812.359
784.952	1806.323
785.286	1799.997
785.619	1793.381
785.952	1786.479
786.286	1779.292
786.619	1771.824
786.953	1764.077
787.286	1756.054
787.620	1747.758
787.953	1739.193
788.286	1730.362
788.620	1721.269
788.953	1711.918
789.287	1702.313
789.620	1692.459
789.954	1682.359
790.287	1672.019
790.620	1661.443
790.954	1650.636
791.287	1639.603
791.621	1628.350
791.954	1616.882
792.288	1605.204
792.621	1593.322
792.954	1581.242
793.288	1568.969
793.621	1556.510
793.955	1543.870
794.288	1531.055
794.622	1518.073
794.955	1504.928
795.288	1491.628
795.622	1478.179
795.955	1464.587
796.289	1450.858
796.622	1437.001
796.956	1423.020
797.289	1408.923
797.623	1394.716
797.956	1380.407
798.289	1366.001
798.623	1351.505
798.956	1336.927
799.290	1322.272
799.623	1307.548
799.957	1292.761
800.290	1277.917
800.623	1263.024
800.957	1248.087
801.290	1233.114
801.624	1218.110
801.957	1203.083
802.291	1188.038
802.624	1172.982
802.957	1157.920
803.291	1142.859
803.624	1127.806
803.958	1112.765
804.291	1097.742
804.625	1082.745
804.958	1067.777
805.291	1052.845
805.625	1037.953
805.958	1023.108
806.292	1008.315
806.625	993.578
806.959	978.902
807.292	964.293
807.625	949.755
807.959	935.293
808.292	920.910
808.626	906.612
808.959	892.402
809.293	878.285
809.626	864.265
809.959	850.344
810.293	836.528
810.626	822.819
810.960	809.220
811.293	795.736
811.627	782.368
811.960	769.121
812.294	755.996
812.627	742.996
812.960	730.124
813.294	717.383
813.627	704.773
813.961	692.299
814.294	679.960
814.628	667.760
814.961	655.700
815.294	643.782
815.628	632.006
815.961	620.375
816.295	608.889
816.628	597.550
816.962	586.358
817.295	575.314
817.628	564.419
817.962	553.674
818.295	543.079
818.629	532.633
818.962	522.339
819.296	512.195
819.629	502.201
819.962	492.359
820.296	482.667
820.629	473.125
820.963	463.733
821.296	454.490
821.630	445.397
821.963	436.451
822.296	427.654
822.630	419.003
822.963	410.499
823.297	402.139
823.630	393.924
823.964	385.852
824.297	377.923
824.630	370.134
824.964	362.485
825.297	354.975
825.631	347.601
825.964	340.364
826.298	333.262
826.631	326.292
826.965	319.454
827.298	312.746
827.631	306.167
827.965	299.714
828.298	293.387
828.632	287.184
828.965	281.103
829.299	275.143
829.632	269.301
829.965	263.576
830.299	257.967
830.632	252.471
830.966	247.088
831.299	241.814
831.633	236.649
831.966	231.591
832.299	226.637
832.633	221.787
832.966	217.038
833.300	212.388
833.633	207.837
833.967	203.382
834.300	199.021
834.633	194.753
834.967	190.576
835.300	186.488
835.634	182.488
835.967	178.573
836.301	174.743
836.634	170.996
836.967	167.329
837.301	163.742
837.634	160.232
837.968	156.799
838.301	153.440
838.635	150.154
838.968	146.940
839.301	143.796
839.635	140.720
839.968	137.711
840.302	134.768
840.635	131.889
840.969	129.073
841.302	126.318
841.636	123.623
841.969	120.987
842.302	118.409
842.636	115.887
842.969	113.419
843.303	111.006
843.636	108.644
843.970	106.334
844.303	104.075
844.636	101.864
844.970	99.701
845.303	97.585
845.637	95.514
845.970	93.488
846.304	91.506
846.637	89.566
846.970	87.668
847.304	85.811
847.637	83.994
847.971	82.215
848.304	80.474
848.638	78.770
848.971	77.103
849.304	75.471
849.638	73.873
849.971	72.310
850.305	70.779
850.638	69.281
850.972	67.814
851.305	66.378
851.638	64.971
851.972	63.595
852.305	62.247
852.639	60.927
852.972	59.635
853.306	58.369
853.639	57.130
853.972	55.917
854.306	54.728
854.639	53.564
854.973	52.424
855.306	51.308
855.640	50.214
855.973	49.143
856.307	48.094
856.640	47.066
856.973	46.060
857.307	45.074
857.640	44.108
857.974	43.161
858.307	42.234
858.641	41.326
858.974	40.436
859.307	39.565
859.641	38.711
859.974	37.874
860.308	37.054
860.641	36.251
860.975	35.465
861.308	34.694
861.641	33.939
861.975	33.199
862.308	32.474
862.642	31.764
862.975	31.068
863.309	30.386
863.642	29.718
863.975	29.064
864.309	28.422
864.642	27.794
864.976	27.179
865.309	26.576
865.643	25.986
865.976	25.407
866.309	24.840
866.643	24.285
866.976	23.741
867.310	23.208
867.643	22.686
867.977	22.175
868.310	21.674
868.643	21.184
868.977	20.703
869.310	20.233
869.644	19.772
869.977	19.321
870.311	18.879
870.644	18.446
870.978	18.022
871.311	17.607
871.644	17.201
871.978	16.803
872.311	16.414
872.645	16.032
872.978	15.659
873.312	15.293
873.645	14.935
873.978	14.585
874.312	14.242
874.645	13.907
874.979	13.578
875.312	13.257
875.646	12.942
875.979	12.634
876.312	12.333
876.646	12.038
876.979	11.750
877.313	11.468
877.646	11.192
877.980	10.922
878.313	10.658
878.646	10.399
878.980	10.146
879.313	9.899
879.647	9.657
879.980	9.421
880.314	9.190
880.647	8.964
880.980	8.743
881.314	8.527
881.647	8.315
881.981	8.109
882.314	7.907
882.648	7.709
882.981	7.516
883.314	7.328
883.648	7.144
883.981	6.964
884.315	6.788
884.648	6.616
884.982	6.448
885.315	6.284
885.649	6.123
885.982	5.967
886.315	5.814
886.649	5.665
886.982	5.519
887.316	5.376
887.649	5.237
887.983	5.101
888.316	4.968
888.649	4.839
888.983	4.713
889.316	4.589
889.650	4.469
889.983	4.351
890.317	4.236
890.650	4.124
890.983	4.015
891.317	3.908
891.650	3.804
891.984	3.703
892.317	3.604
892.651	3.507
892.984	3.413
893.317	3.321
893.651	3.231
893.984	3.144
894.318	3.058
894.651	2.975
894.985	2.894
895.318	2.815
895.651	2.738
895.985	2.663
896.318	2.590
896.652	2.518
896.985	2.449
897.319	2.381
897.652	2.315
897.985	2.250
898.319	2.187
898.652	2.126
898.986	2.067
899.319	2.009
899.653	1.952
899.986	1.897
900.320	1.844
900.653	1.791
900.986	1.740
901.320	1.691
901.653	1.643
901.987	1.596
902.320	1.550
902.654	1.506
902.987	1.462
903.320	1.420
903.654	1.379
903.987	1.339
904.321	1.300
904.654	1.262
904.988	1.226
905.321	1.190
905.654	1.155
905.988	1.121
906.321	1.088
906.655	1.056
906.988	1.025
907.322	0.995
907.655	0.965
907.988	0.936
908.322	0.908
908.655	0.881
908.989	0.855
909.322	0.829
909.656	0.804
909.989	0.780
910.322	0.757
910.656	0.734
910.989	0.712
911.323	0.690
911.656	0.669
911.990	0.649
912.323	0.629
912.656	0.610
912.990	0.591
913.323	0.573
913.657	0.555
913.990	0.538
914.324	0.521
914.657	0.505
914.991	0.490
915.324	0.474
915.657	0.459
915.991	0.445
916.324	0.431
916.658	0.418
916.991	0.405
917.325	0.392
917.658	0.379
917.991	0.367
918.325	0.356
918.658	0.345
918.992	0.334
919.325	0.323
919.659	0.313
919.992	0.303
920.325	0.293
920.659	0.284
920.992	0.274
921.326	0.266
921.659	0.257
921.993	0.249
922.326	0.241
922.659	0.233
922.993	0.225
923.326	0.218
923.660	0.211
923.993	0.204
924.327	0.197
924.660	0.191
924.993	0.184
925.327	0.178
925.660	0.172
925.994	0.167
926.327	0.161
926.661	0.156
926.994	0.151
927.327	0.146
927.661	0.141
927.994	0.136
928.328	0.131
928.661	0.127
928.995	0.123
929.328	0.119
929.662	0.115
929.995	0.111
930.328	0.107
930.662	0.103
930.995	0.100
931.329	0.096
931.662	0.093
931.996	0.090
932.329	0.087
932.662	0.084
932.996	0.081
933.329	0.078
933.663	0.075
933.996	0.073
934.330	0.070
934.663	0.068
934.996	0.065
935.330	0.063
935.663	0.061
935.997	0.059
936.330	0.057
936.664	0.055
936.997	0.053
937.330	0.051
937.664	0.049
937.997	0.047
938.331	0.046
938.664	0.044
938.998	0.043
939.331	0.041
939.664	0.040
939.998	0.038
940.331	0.037
940.665	0.035
940.998	0.034
941.332	0.033
941.665	0.032
941.998	0.031
942.332	0.030
942.665	0.028
942.999	0.027
943.332	0.026
943.666	0.025
943.999	0.025
944.333	0.024
944.666	0.023
944.999	0.022
945.333	0.021
945.666	0.020
946.000	0.020
946.333	0.019
946.667	0.018
947.000	0.018
947.333	0.017
947.667	0.016
948.000	0.016
948.334	0.015
948.667	0.014
949.001	0.014
949.334	0.013
949.667	0.013
950.001	0.012
950.334	0.012
950.668	0.011
951.001	0.011
951.335	0.011
951.668	0.010
952.001	0.010
952.335	0.009
952.668	0.009
953.002	0.009
953.335	0.008
953.669	0.008
954.002	0.008
954.335	0.007
954.669	0.007
955.002	0.007
955.336	0.007
955.669	0.006
956.003	0.006
956.336	0.006
956.669	0.006
957.003	0.005
957.336	0.005
957.670	0.005
958.003	0.005
958.337	0.005
958.670	0.004
959.004	0.004
959.337	0.004
959.670	0.004
960.004	0.004
960.337	0.004
960.671	0.004
961.004	0.003
961.338	0.003
961.671	0.003
962.004	0.003
962.338	0.003
962.671	0.003
963.005	0.003
963.338	0.003
963.672	0.002
964.005	0.002
964.338	0.002
964.672	0.002
965.005	0.002
965.339	0.002
965.672	0.002
966.006	0.002
966.339	0.002
966.672	0.002
967.006	0.002
967.339	0.002
967.673	0.001
968.006	0.001
968.340	0.001
968.673	0.001
969.006	0.001
969.340	0.001
969.673	0.001
970.007	0.001
970.340	0.001
970.674	0.001
971.007	0.001
971.340	0.001
971.674	0.001
972.007	0.001
972.341	0.001
972.674	0.001
973.008	0.001
973.341	0.001
973.675	0.001
974.008	0.001
974.341	0.001
974.675	0.001
975.008	0.001
975.342	0.001
975.675	0.001
976.009	0.001
976.342	0.000
976.675	0.000
977.009	0.000
977.342	0.000
977.676	0.000
978.009	0.000
978.343	0.000
978.676	0.000
979.009	0.000
979.343	0.000
979.676	0.000
980.010	0.000
980.343	0.000
980.677	0.000
981.010	0.000
981.343	0.000
981.677	0.000
982.010	0.000
982.344	0.000
982.677	0.000
983.011	0.000
983.344	0.000
983.677	0.000
984.011	0.000
984.344	0.000
984.678	0.000
985.011	0.000
985.345	0.000
985.678	0.000
986.011	0.000
986.345	0.000
986.678	0.000
987.012	0.000
987.345	0.000
987.679	0.000
988.012	0.000
988.346	0.000
988.679	0.000
989.012	0.000
989.346	0.000
989.679	0.000
990.013	0.000
990.346	0.000
990.680	0.000
991.013	0.000
991.346	0.000
991.680	0.000
992.013	0.000
992.347	0.000
992.680	0.000
993.014	0.000
993.347	0.000
993.680	0.000
994.014	0.000
994.347	0.000
994.681	0.000
995.014	0.000
995.348	0.000
995.681	0.000
996.014	0.000
996.348	0.000
996.681	0.000
997.015	0.000
997.348	0.000
997.682	0.000
998.015	0.000
998.348	0.000
998.682	0.000
999.015	0.000
999.349	0.000
999.682	0.000
1000.016	0.000
1000.349	0.000
1000.682	0.000
1001.016	0.000
1001.349	0.000
1001.683	0.000
1002.016	0.000
1002.350	0.000
1002.683	0.000
1003.017	0.000
1003.350	0.000
1003.683	0.000
1004.017	0.000
1004.350	0.000
1004.684	0.000
1005.017	0.000
1005.351	0.000
1005.684	0.000
1006.017	0.000
1006.351	0.000
1006.684	0.000
1007.018	0.000
1007.351	0.000
1007.685	0.000
1008.018	0.000
1008.351	0.000
1008.685	0.000
1009.018	0.000
1009.352	0.000
1009.685	0.000
1010.019	0.000
1010.352	0.000
1010.685	0.000
1011.019	0.000
1011.352	0.000
1011.686	0.000
1012.019	0.000
1012.353	0.000
1012.686	0.000
1013.019	0.000
1013.353	0.000
1013.686	0.000
1014.020	0.000
1014.353	0.000
1014.687	0.000
1015.020	0.000
1015.353	0.000
1015.687	0.000
1016.020	0.000
1016.354	0.000
1016.687	0.000
1017.021	0.000
1017.354	0.000
1017.688	0.000
1018.021	0.000
1018.354	0.000
1018.688	0.000
1019.021	0.000
1019.355	0.000
1019.688	0.000
1020.022	0.000
1020.355	0.000
1020.688	0.000
1021.022	0.000
1021.355	0.000
1021.689	0.000
1022.022	0.000
1022.356	0.000
1022.689	0.000
