Data from repetition_4.txt_16-47-09-365.txt Node
Date: Sun Jun 13 23:27:09 CET 2021
User: fcossio
Spectrometer: FLMS15016
Trigger mode: 0
Integration Time (sec): 3.000000E-1Scans to average: 1
Electric dark correction enabled: true
Nonlinearity correction enabled: false
Boxcar width: 0
XAxis mode: Wavelengths
Number of Pixels in Spectrum: 2048
>>>>>Begin Spectral Data<<<<<
340.154	0.000
340.487	0.000
340.821	0.000
341.154	0.000
341.488	0.000
341.821	0.000
342.155	0.000
342.488	0.000
342.821	0.000
343.155	0.000
343.488	0.000
343.822	0.000
344.155	0.000
344.489	0.000
344.822	0.000
345.155	0.000
345.489	0.000
345.822	0.000
346.156	0.000
346.489	0.000
346.823	0.000
347.156	0.000
347.490	0.000
347.823	0.000
348.156	0.000
348.490	0.000
348.823	0.000
349.157	0.000
349.490	0.000
349.824	0.000
350.157	0.000
350.490	0.000
350.824	0.000
351.157	0.000
351.491	0.000
351.824	0.000
352.158	0.000
352.491	0.000
352.824	0.000
353.158	0.000
353.491	0.000
353.825	0.000
354.158	0.000
354.492	0.000
354.825	0.000
355.158	0.000
355.492	0.000
355.825	0.000
356.159	0.000
356.492	0.000
356.826	0.000
357.159	0.000
357.492	0.000
357.826	0.000
358.159	0.000
358.493	0.000
358.826	0.000
359.160	0.000
359.493	0.000
359.826	0.000
360.160	0.000
360.493	0.000
360.827	0.000
361.160	0.000
361.494	0.000
361.827	0.000
362.161	0.000
362.494	0.000
362.827	0.000
363.161	0.000
363.494	0.000
363.828	0.000
364.161	0.000
364.495	0.000
364.828	0.000
365.161	0.000
365.495	0.000
365.828	0.000
366.162	0.000
366.495	0.000
366.829	0.000
367.162	0.000
367.495	0.000
367.829	0.000
368.162	0.000
368.496	0.000
368.829	0.000
369.163	0.000
369.496	0.000
369.829	0.000
370.163	0.000
370.496	0.000
370.830	0.000
371.163	0.000
371.497	0.000
371.830	0.000
372.163	0.000
372.497	0.000
372.830	0.000
373.164	0.000
373.497	0.000
373.831	0.000
374.164	0.000
374.497	0.000
374.831	0.000
375.164	0.000
375.498	0.000
375.831	0.000
376.165	0.000
376.498	0.000
376.832	0.000
377.165	0.000
377.498	0.000
377.832	0.000
378.165	0.000
378.499	0.000
378.832	0.000
379.166	0.000
379.499	0.000
379.832	0.000
380.166	0.000
380.499	0.000
380.833	0.000
381.166	0.000
381.500	0.000
381.833	0.000
382.166	0.000
382.500	0.000
382.833	0.000
383.167	0.000
383.500	0.000
383.834	0.000
384.167	0.000
384.500	0.000
384.834	0.000
385.167	0.000
385.501	0.000
385.834	0.000
386.168	0.000
386.501	0.000
386.834	0.000
387.168	0.000
387.501	0.000
387.835	0.000
388.168	0.000
388.502	0.000
388.835	0.000
389.168	0.000
389.502	0.000
389.835	0.000
390.169	0.000
390.502	0.000
390.836	0.000
391.169	0.000
391.503	0.000
391.836	0.000
392.169	0.000
392.503	0.000
392.836	0.000
393.170	0.000
393.503	0.000
393.837	0.000
394.170	0.000
394.503	0.000
394.837	0.000
395.170	0.000
395.504	0.000
395.837	0.000
396.171	0.000
396.504	0.000
396.837	0.000
397.171	0.000
397.504	0.000
397.838	0.000
398.171	0.000
398.505	0.000
398.838	0.000
399.171	0.000
399.505	0.000
399.838	0.000
400.172	0.000
400.505	0.000
400.839	0.000
401.172	0.000
401.505	0.000
401.839	0.000
402.172	0.000
402.506	0.000
402.839	0.000
403.173	0.000
403.506	0.000
403.839	0.000
404.173	0.000
404.506	0.000
404.840	0.000
405.173	0.000
405.507	0.000
405.840	0.000
406.174	0.000
406.507	0.000
406.840	0.000
407.174	0.000
407.507	0.000
407.841	0.000
408.174	0.000
408.508	0.000
408.841	0.000
409.174	0.000
409.508	0.000
409.841	0.000
410.175	0.000
410.508	0.000
410.842	0.000
411.175	0.000
411.508	0.000
411.842	0.000
412.175	0.000
412.509	0.000
412.842	0.000
413.176	0.000
413.509	0.000
413.842	0.000
414.176	0.000
414.509	0.000
414.843	0.000
415.176	0.000
415.510	0.000
415.843	0.000
416.176	0.000
416.510	0.000
416.843	0.000
417.177	0.000
417.510	0.000
417.844	0.000
418.177	0.000
418.510	0.000
418.844	0.000
419.177	0.000
419.511	0.000
419.844	0.000
420.178	0.000
420.511	0.000
420.845	0.000
421.178	0.000
421.511	0.000
421.845	0.000
422.178	0.000
422.512	0.000
422.845	0.000
423.179	0.000
423.512	0.000
423.845	0.000
424.179	0.000
424.512	0.000
424.846	0.000
425.179	0.000
425.513	0.000
425.846	0.000
426.179	0.000
426.513	0.000
426.846	0.000
427.180	0.000
427.513	0.000
427.847	0.000
428.180	0.000
428.513	0.000
428.847	0.000
429.180	0.000
429.514	0.000
429.847	0.000
430.181	0.000
430.514	0.000
430.847	0.000
431.181	0.000
431.514	0.000
431.848	0.000
432.181	0.000
432.515	0.000
432.848	0.000
433.181	0.000
433.515	0.000
433.848	0.000
434.182	0.000
434.515	0.000
434.849	0.000
435.182	0.000
435.516	0.000
435.849	0.000
436.182	0.000
436.516	0.000
436.849	0.000
437.183	0.000
437.516	0.000
437.850	0.000
438.183	0.000
438.516	0.000
438.850	0.000
439.183	0.000
439.517	0.000
439.850	0.000
440.184	0.000
440.517	0.000
440.850	0.000
441.184	0.000
441.517	0.000
441.851	0.000
442.184	0.000
442.518	0.000
442.851	0.000
443.184	0.000
443.518	0.000
443.851	0.000
444.185	0.000
444.518	0.000
444.852	0.000
445.185	0.000
445.518	0.000
445.852	0.000
446.185	0.000
446.519	0.000
446.852	0.000
447.186	0.000
447.519	0.000
447.852	0.000
448.186	0.000
448.519	0.000
448.853	0.000
449.186	0.000
449.520	0.000
449.853	0.000
450.187	0.000
450.520	0.000
450.853	0.000
451.187	0.000
451.520	0.000
451.854	0.000
452.187	0.000
452.521	0.000
452.854	0.000
453.187	0.000
453.521	0.000
453.854	0.000
454.188	0.000
454.521	0.000
454.855	0.000
455.188	0.000
455.521	0.000
455.855	0.000
456.188	0.000
456.522	0.000
456.855	0.000
457.189	0.000
457.522	0.000
457.855	0.000
458.189	0.000
458.522	0.000
458.856	0.000
459.189	0.000
459.523	0.000
459.856	0.000
460.189	0.000
460.523	0.000
460.856	0.000
461.190	0.000
461.523	0.000
461.857	0.000
462.190	0.000
462.523	0.000
462.857	0.000
463.190	0.000
463.524	0.000
463.857	0.000
464.191	0.000
464.524	0.000
464.858	0.000
465.191	0.000
465.524	0.000
465.858	0.000
466.191	0.000
466.525	0.000
466.858	0.000
467.192	0.000
467.525	0.000
467.858	0.000
468.192	0.000
468.525	0.000
468.859	0.000
469.192	0.000
469.526	0.000
469.859	0.000
470.192	0.000
470.526	0.000
470.859	0.000
471.193	0.000
471.526	0.000
471.860	0.000
472.193	0.000
472.526	0.000
472.860	0.000
473.193	0.000
473.527	0.000
473.860	0.000
474.194	0.000
474.527	0.000
474.860	0.000
475.194	0.000
475.527	0.000
475.861	0.000
476.194	0.000
476.528	0.000
476.861	0.000
477.194	0.000
477.528	0.000
477.861	0.000
478.195	0.000
478.528	0.000
478.862	0.000
479.195	0.000
479.529	0.000
479.862	0.000
480.195	0.000
480.529	0.000
480.862	0.000
481.196	0.000
481.529	0.000
481.863	0.000
482.196	0.000
482.529	0.000
482.863	0.000
483.196	0.000
483.530	0.000
483.863	0.000
484.197	0.000
484.530	0.000
484.863	0.000
485.197	0.000
485.530	0.000
485.864	0.000
486.197	0.000
486.531	0.000
486.864	0.000
487.197	0.000
487.531	0.000
487.864	0.000
488.198	0.000
488.531	0.000
488.865	0.000
489.198	0.000
489.531	0.000
489.865	0.000
490.198	0.000
490.532	0.000
490.865	0.000
491.199	0.000
491.532	0.000
491.865	0.000
492.199	0.000
492.532	0.000
492.866	0.000
493.199	0.000
493.533	0.000
493.866	0.000
494.200	0.000
494.533	0.000
494.866	0.000
495.200	0.000
495.533	0.000
495.867	0.000
496.200	0.000
496.534	0.000
496.867	0.000
497.200	0.000
497.534	0.000
497.867	0.000
498.201	0.000
498.534	0.000
498.868	0.000
499.201	0.000
499.534	0.000
499.868	0.000
500.201	0.000
500.535	0.000
500.868	0.000
501.202	0.000
501.535	0.000
501.868	0.000
502.202	0.000
502.535	0.000
502.869	0.000
503.202	0.000
503.536	0.000
503.869	0.000
504.202	0.000
504.536	0.000
504.869	0.000
505.203	0.000
505.536	0.000
505.870	0.000
506.203	0.000
506.536	0.000
506.870	0.000
507.203	0.000
507.537	0.000
507.870	0.000
508.204	0.000
508.537	0.000
508.871	0.000
509.204	0.000
509.537	0.000
509.871	0.000
510.204	0.000
510.538	0.000
510.871	0.000
511.205	0.000
511.538	0.000
511.871	0.000
512.205	0.000
512.538	0.000
512.872	0.000
513.205	0.000
513.539	0.000
513.872	0.000
514.205	0.000
514.539	0.000
514.872	0.000
515.206	0.000
515.539	0.000
515.873	0.000
516.206	0.000
516.539	0.000
516.873	0.000
517.206	0.000
517.540	0.000
517.873	0.000
518.207	0.000
518.540	0.000
518.873	0.000
519.207	0.000
519.540	0.000
519.874	0.000
520.207	0.000
520.541	0.000
520.874	0.000
521.207	0.000
521.541	0.000
521.874	0.000
522.208	0.000
522.541	0.000
522.875	0.000
523.208	0.000
523.542	0.000
523.875	0.000
524.208	0.000
524.542	0.000
524.875	0.000
525.209	0.000
525.542	0.000
525.876	0.000
526.209	0.000
526.542	0.000
526.876	0.000
527.209	0.000
527.543	0.000
527.876	0.000
528.210	0.000
528.543	0.000
528.876	0.000
529.210	0.000
529.543	0.000
529.877	0.000
530.210	0.000
530.544	0.000
530.877	0.000
531.210	0.000
531.544	0.000
531.877	0.000
532.211	0.000
532.544	0.000
532.878	0.000
533.211	0.000
533.544	0.000
533.878	0.000
534.211	0.000
534.545	0.000
534.878	0.000
535.212	0.000
535.545	0.000
535.878	0.000
536.212	0.000
536.545	0.000
536.879	0.000
537.212	0.000
537.546	0.000
537.879	0.000
538.213	0.000
538.546	0.000
538.879	0.000
539.213	0.000
539.546	0.000
539.880	0.000
540.213	0.000
540.547	0.000
540.880	0.000
541.213	0.000
541.547	0.000
541.880	0.000
542.214	0.000
542.547	0.000
542.881	0.000
543.214	0.000
543.547	0.000
543.881	0.000
544.214	0.000
544.548	0.000
544.881	0.000
545.215	0.000
545.548	0.000
545.881	0.000
546.215	0.000
546.548	0.000
546.882	0.000
547.215	0.000
547.549	0.000
547.882	0.000
548.215	0.000
548.549	0.000
548.882	0.000
549.216	0.000
549.549	0.000
549.883	0.000
550.216	0.000
550.549	0.000
550.883	0.000
551.216	0.000
551.550	0.001
551.883	0.001
552.217	0.001
552.550	0.001
552.884	0.001
553.217	0.001
553.550	0.001
553.884	0.001
554.217	0.001
554.551	0.001
554.884	0.001
555.218	0.001
555.551	0.002
555.884	0.002
556.218	0.002
556.551	0.002
556.885	0.002
557.218	0.003
557.552	0.003
557.885	0.003
558.218	0.003
558.552	0.004
558.885	0.004
559.219	0.004
559.552	0.005
559.886	0.005
560.219	0.006
560.552	0.006
560.886	0.007
561.219	0.008
561.553	0.008
561.886	0.009
562.220	0.010
562.553	0.011
562.886	0.012
563.220	0.013
563.553	0.014
563.887	0.015
564.220	0.017
564.554	0.018
564.887	0.020
565.220	0.022
565.554	0.024
565.887	0.026
566.221	0.029
566.554	0.031
566.888	0.034
567.221	0.037
567.555	0.041
567.888	0.044
568.221	0.048
568.555	0.053
568.888	0.057
569.222	0.062
569.555	0.068
569.889	0.074
570.222	0.081
570.555	0.088
570.889	0.095
571.222	0.104
571.556	0.113
571.889	0.123
572.223	0.134
572.556	0.145
572.889	0.158
573.223	0.171
573.556	0.186
573.890	0.202
574.223	0.219
574.557	0.238
574.890	0.258
575.223	0.280
575.557	0.303
575.890	0.328
576.224	0.356
576.557	0.385
576.891	0.417
577.224	0.452
577.557	0.489
577.891	0.528
578.224	0.571
578.558	0.618
578.891	0.667
579.225	0.721
579.558	0.779
579.892	0.841
580.225	0.907
580.558	0.979
580.892	1.056
581.225	1.138
581.559	1.227
581.892	1.322
582.226	1.424
582.559	1.533
582.892	1.650
583.226	1.775
583.559	1.909
583.893	2.053
584.226	2.207
584.560	2.371
584.893	2.547
585.226	2.735
585.560	2.936
585.893	3.151
586.227	3.380
586.560	3.624
586.894	3.885
587.227	4.163
587.560	4.459
587.894	4.775
588.227	5.111
588.561	5.469
588.894	5.850
589.228	6.256
589.561	6.687
589.894	7.145
590.228	7.632
590.561	8.150
590.895	8.699
591.228	9.282
591.562	9.901
591.895	10.557
592.228	11.252
592.562	11.990
592.895	12.770
593.229	13.597
593.562	14.472
593.896	15.398
594.229	16.377
594.563	17.412
594.896	18.506
595.229	19.662
595.563	20.882
595.896	22.170
596.230	23.529
596.563	24.962
596.897	26.472
597.230	28.064
597.563	29.741
597.897	31.507
598.230	33.365
598.564	35.320
598.897	37.377
599.231	39.538
599.564	41.809
599.897	44.195
600.231	46.699
600.564	49.328
600.898	52.085
601.231	54.977
601.565	58.008
601.898	61.184
602.231	64.510
602.565	67.993
602.898	71.637
603.232	75.448
603.565	79.434
603.899	83.600
604.232	87.952
604.565	92.496
604.899	97.241
605.232	102.191
605.566	107.354
605.899	112.736
606.233	118.345
606.566	124.188
606.899	130.272
607.233	136.604
607.566	143.192
607.900	150.043
608.233	157.164
608.567	164.563
608.900	172.247
609.234	180.225
609.567	188.504
609.900	197.091
610.234	205.994
610.567	215.221
610.901	224.779
611.234	234.677
611.568	244.922
611.901	255.521
612.234	266.482
612.568	277.812
612.901	289.519
613.235	301.610
613.568	314.092
613.902	326.973
614.235	340.259
614.568	353.956
614.902	368.072
615.235	382.613
615.569	397.585
615.902	412.994
616.236	428.846
616.569	445.146
616.902	461.900
617.236	479.112
617.569	496.788
617.903	514.931
618.236	533.546
618.570	552.636
618.903	572.206
619.236	592.256
619.570	612.792
619.903	633.813
620.237	655.323
620.570	677.323
620.904	699.814
621.237	722.795
621.570	746.268
621.904	770.231
622.237	794.684
622.571	819.625
622.904	845.053
623.238	870.964
623.571	897.355
623.905	924.224
624.238	951.566
624.571	979.376
624.905	1007.650
625.238	1036.380
625.572	1065.562
625.905	1095.188
626.239	1125.250
626.572	1155.741
626.905	1186.652
627.239	1217.974
627.572	1249.697
627.906	1281.810
628.239	1314.304
628.573	1347.166
628.906	1380.385
629.239	1413.948
629.573	1447.842
629.906	1482.054
630.240	1516.569
630.573	1551.375
630.907	1586.454
631.240	1621.793
631.573	1657.375
631.907	1693.184
632.240	1729.204
632.574	1765.418
632.907	1801.807
633.241	1838.356
633.574	1875.045
633.907	1911.857
634.241	1948.773
634.574	1985.774
634.908	2022.841
635.241	2059.956
635.575	2097.100
635.908	2134.252
636.241	2171.393
636.575	2208.504
636.908	2245.566
637.242	2282.559
637.575	2319.463
637.909	2356.259
638.242	2392.927
638.576	2429.449
638.909	2465.806
639.242	2501.978
639.576	2537.947
639.909	2573.694
640.243	2609.202
640.576	2644.452
640.910	2679.427
641.243	2714.110
641.576	2748.484
641.910	2782.533
642.243	2816.241
642.577	2849.592
642.910	2882.572
643.244	2915.165
643.577	2947.358
643.910	2979.138
644.244	3010.492
644.577	3041.408
644.911	3071.873
645.244	3101.877
645.578	3131.409
645.911	3160.460
646.244	3189.021
646.578	3217.083
646.911	3244.638
647.245	3271.679
647.578	3298.200
647.912	3324.195
648.245	3349.658
648.578	3374.586
648.912	3398.975
649.245	3422.821
649.579	3446.122
649.912	3468.876
650.246	3491.082
650.579	3512.740
650.912	3533.850
651.246	3554.412
651.579	3574.428
651.913	3593.900
652.246	3612.830
652.580	3631.221
652.913	3649.076
653.247	3666.401
653.580	3683.198
653.913	3699.474
654.247	3715.233
654.580	3730.482
654.914	3745.227
655.247	3759.473
655.581	3773.228
655.914	3786.500
656.247	3799.295
656.581	3811.621
656.914	3823.487
657.248	3834.900
657.581	3845.868
657.915	3856.400
658.248	3866.505
658.581	3876.190
658.915	3885.465
659.248	3894.338
659.582	3902.818
659.915	3910.914
660.249	3918.633
660.582	3925.984
660.915	3932.976
661.249	3939.617
661.582	3945.915
661.916	3951.877
662.249	3957.512
662.583	3962.826
662.916	3967.826
663.249	3972.521
663.583	3976.916
663.916	3981.017
664.250	3984.831
664.583	3988.363
664.917	3991.619
665.250	3994.603
665.583	3997.321
665.917	3999.776
666.250	4001.973
666.584	4003.914
666.917	4005.604
667.251	4007.045
667.584	4008.239
667.918	4009.188
668.251	4009.895
668.584	4010.359
668.918	4010.583
669.251	4010.567
669.585	4010.310
669.918	4009.813
670.252	4009.075
670.585	4008.096
670.918	4006.874
671.252	4005.407
671.585	4003.695
671.919	4001.734
672.252	3999.523
672.586	3997.060
672.919	3994.340
673.252	3991.362
673.586	3988.122
673.919	3984.617
674.253	3980.844
674.586	3976.798
674.920	3972.476
675.253	3967.874
675.586	3962.989
675.920	3957.815
676.253	3952.351
676.587	3946.590
676.920	3940.530
677.254	3934.166
677.587	3927.494
677.920	3920.511
678.254	3913.213
678.587	3905.596
678.921	3897.657
679.254	3889.392
679.588	3880.799
679.921	3871.874
680.254	3862.614
680.588	3853.017
680.921	3843.081
681.255	3832.804
681.588	3822.183
681.922	3811.217
682.255	3799.906
682.589	3788.248
682.922	3776.242
683.255	3763.888
683.589	3751.188
683.922	3738.140
684.256	3724.745
684.589	3711.006
684.923	3696.923
685.256	3682.498
685.589	3667.734
685.923	3652.633
686.256	3637.199
686.590	3621.435
686.923	3605.344
687.257	3588.931
687.590	3572.201
687.923	3555.158
688.257	3537.809
688.590	3520.158
688.924	3502.212
689.257	3483.977
689.591	3465.460
689.924	3446.669
690.257	3427.611
690.591	3408.294
690.924	3388.726
691.258	3368.916
691.591	3348.872
691.925	3328.603
692.258	3308.120
692.591	3287.432
692.925	3266.549
693.258	3245.480
693.592	3224.237
693.925	3202.830
694.259	3181.270
694.592	3159.568
694.925	3137.736
695.259	3115.784
695.592	3093.724
695.926	3071.569
696.259	3049.329
696.593	3027.018
696.926	3004.646
697.260	2982.226
697.593	2959.770
697.926	2937.290
698.260	2914.799
698.593	2892.308
698.927	2869.831
699.260	2847.379
699.594	2824.964
699.927	2802.599
700.260	2780.295
700.594	2758.066
700.927	2735.922
701.261	2713.876
701.594	2691.939
701.928	2670.124
702.261	2648.440
702.594	2626.901
702.928	2605.517
703.261	2584.300
703.595	2563.259
703.928	2542.406
704.262	2521.752
704.595	2501.306
704.928	2481.079
705.262	2461.081
705.595	2441.320
705.929	2421.808
706.262	2402.552
706.596	2383.563
706.929	2364.848
707.262	2346.415
707.596	2328.274
707.929	2310.432
708.263	2292.897
708.596	2275.675
708.930	2258.774
709.263	2242.202
709.596	2225.963
709.930	2210.065
710.263	2194.514
710.597	2179.314
710.930	2164.472
711.264	2149.993
711.597	2135.880
711.931	2122.140
712.264	2108.775
712.597	2095.790
712.931	2083.189
713.264	2070.974
713.598	2059.148
713.931	2047.716
714.265	2036.677
714.598	2026.036
714.931	2015.794
715.265	2005.953
715.598	1996.513
715.932	1987.476
716.265	1978.842
716.599	1970.613
716.932	1962.789
717.265	1955.368
717.599	1948.352
717.932	1941.740
718.266	1935.531
718.599	1929.723
718.933	1924.317
719.266	1919.309
719.599	1914.699
719.933	1910.485
720.266	1906.664
720.600	1903.235
720.933	1900.194
721.267	1897.539
721.600	1895.267
721.933	1893.375
722.267	1891.859
722.600	1890.716
722.934	1889.942
723.267	1889.533
723.601	1889.485
723.934	1889.794
724.267	1890.456
724.601	1891.465
724.934	1892.818
725.268	1894.509
725.601	1896.533
725.935	1898.886
726.268	1901.561
726.602	1904.554
726.935	1907.859
727.268	1911.470
727.602	1915.382
727.935	1919.588
728.269	1924.083
728.602	1928.860
728.936	1933.914
729.269	1939.238
729.602	1944.825
729.936	1950.670
730.269	1956.765
730.603	1963.105
730.936	1969.682
731.270	1976.489
731.603	1983.521
731.936	1990.769
732.270	1998.227
732.603	2005.889
732.937	2013.747
733.270	2021.793
733.604	2030.022
733.937	2038.425
734.270	2046.996
734.604	2055.727
734.937	2064.611
735.271	2073.641
735.604	2082.810
735.938	2092.110
736.271	2101.535
736.604	2111.076
736.938	2120.726
737.271	2130.479
737.605	2140.327
737.938	2150.263
738.272	2160.279
738.605	2170.368
738.938	2180.524
739.272	2190.738
739.605	2201.003
739.939	2211.314
740.272	2221.661
740.606	2232.039
740.939	2242.441
741.273	2252.858
741.606	2263.285
741.939	2273.715
742.273	2284.140
742.606	2294.553
742.940	2304.949
743.273	2315.321
743.607	2325.661
743.940	2335.963
744.273	2346.221
744.607	2356.429
744.940	2366.579
745.274	2376.667
745.607	2386.684
745.941	2396.627
746.274	2406.488
746.607	2416.261
746.941	2425.941
747.274	2435.523
747.608	2444.999
747.941	2454.365
748.275	2463.616
748.608	2472.745
748.941	2481.748
749.275	2490.620
749.608	2499.355
749.942	2507.949
750.275	2516.396
750.609	2524.692
750.942	2532.832
751.275	2540.812
751.609	2548.628
751.942	2556.275
752.276	2563.748
752.609	2571.045
752.943	2578.160
753.276	2585.091
753.609	2591.833
753.943	2598.383
754.276	2604.737
754.610	2610.893
754.943	2616.846
755.277	2622.595
755.610	2628.135
755.944	2633.465
756.277	2638.581
756.610	2643.480
756.944	2648.162
757.277	2652.622
757.611	2656.859
757.944	2660.871
758.278	2664.656
758.611	2668.212
758.944	2671.538
759.278	2674.631
759.611	2677.491
759.945	2680.115
760.278	2682.504
760.612	2684.656
760.945	2686.569
761.278	2688.243
761.612	2689.678
761.945	2690.873
762.279	2691.827
762.612	2692.539
762.946	2693.011
763.279	2693.241
763.612	2693.230
763.946	2692.977
764.279	2692.484
764.613	2691.750
764.946	2690.775
765.280	2689.560
765.613	2688.107
765.946	2686.415
766.280	2684.485
766.613	2682.319
766.947	2679.918
767.280	2677.282
767.614	2674.412
767.947	2671.311
768.280	2667.980
768.614	2664.419
768.947	2660.632
769.281	2656.618
769.614	2652.381
769.948	2647.922
770.281	2643.242
770.615	2638.344
770.948	2633.230
771.281	2627.902
771.615	2622.363
771.948	2616.613
772.282	2610.657
772.615	2604.496
772.949	2598.132
773.282	2591.568
773.615	2584.807
773.949	2577.852
774.282	2570.704
774.616	2563.367
774.949	2555.843
775.283	2548.135
775.616	2540.246
775.949	2532.180
776.283	2523.938
776.616	2515.523
776.950	2506.940
777.283	2498.190
777.617	2489.276
777.950	2480.203
778.283	2470.972
778.617	2461.587
778.950	2452.051
779.284	2442.368
779.617	2432.539
779.951	2422.569
780.284	2412.461
780.617	2402.217
780.951	2391.842
781.284	2381.337
781.618	2370.707
781.951	2359.954
782.285	2349.082
782.618	2338.094
782.951	2326.992
783.285	2315.781
783.618	2304.464
783.952	2293.042
784.285	2281.521
784.619	2269.902
784.952	2258.189
785.286	2246.384
785.619	2234.492
785.952	2222.515
786.286	2210.456
786.619	2198.318
786.953	2186.104
787.286	2173.818
787.620	2161.461
787.953	2149.037
788.286	2136.549
788.620	2124.000
788.953	2111.392
789.287	2098.729
789.620	2086.012
789.954	2073.246
790.287	2060.432
790.620	2047.573
790.954	2034.672
791.287	2021.731
791.621	2008.754
791.954	1995.742
792.288	1982.698
792.621	1969.625
792.954	1956.524
793.288	1943.399
793.621	1930.252
793.955	1917.085
794.288	1903.900
794.622	1890.700
794.955	1877.486
795.288	1864.262
795.622	1851.028
795.955	1837.788
796.289	1824.542
796.622	1811.294
796.956	1798.045
797.289	1784.798
797.623	1771.553
797.956	1758.313
798.289	1745.080
798.623	1731.855
798.956	1718.640
799.290	1705.437
799.623	1692.248
799.957	1679.074
800.290	1665.917
800.623	1652.778
800.957	1639.659
801.290	1626.562
801.624	1613.487
801.957	1600.436
802.291	1587.411
802.624	1574.413
802.957	1561.444
803.291	1548.503
803.624	1535.594
803.958	1522.716
804.291	1509.872
804.625	1497.062
804.958	1484.287
805.291	1471.549
805.625	1458.848
805.958	1446.186
806.292	1433.564
806.625	1420.982
806.959	1408.442
807.292	1395.944
807.625	1383.489
807.959	1371.079
808.292	1358.713
808.626	1346.394
808.959	1334.121
809.293	1321.895
809.626	1309.718
809.959	1297.589
810.293	1285.510
810.626	1273.481
810.960	1261.503
811.293	1249.576
811.627	1237.701
811.960	1225.879
812.294	1214.110
812.627	1202.395
812.960	1190.735
813.294	1179.129
813.627	1167.578
813.961	1156.084
814.294	1144.645
814.628	1133.263
814.961	1121.939
815.294	1110.672
815.628	1099.462
815.961	1088.312
816.295	1077.220
816.628	1066.187
816.962	1055.213
817.295	1044.299
817.628	1033.446
817.962	1022.652
818.295	1011.920
818.629	1001.248
818.962	990.637
819.296	980.088
819.629	969.601
819.962	959.176
820.296	948.813
820.629	938.513
820.963	928.275
821.296	918.100
821.630	907.988
821.963	897.939
822.296	887.954
822.630	878.033
822.963	868.175
823.297	858.381
823.630	848.651
823.964	838.986
824.297	829.384
824.630	819.848
824.964	810.376
825.297	800.968
825.631	791.626
825.964	782.348
826.298	773.135
826.631	763.988
826.965	754.905
827.298	745.888
827.631	736.936
827.965	728.050
828.298	719.229
828.632	710.473
828.965	701.783
829.299	693.158
829.632	684.599
829.965	676.106
830.299	667.678
830.632	659.316
830.966	651.020
831.299	642.789
831.633	634.624
831.966	626.524
832.299	618.490
832.633	610.522
832.966	602.620
833.300	594.782
833.633	587.011
833.967	579.305
834.300	571.664
834.633	564.089
834.967	556.579
835.300	549.134
835.634	541.755
835.967	534.441
836.301	527.191
836.634	520.007
836.967	512.888
837.301	505.833
837.634	498.843
837.968	491.918
838.301	485.057
838.635	478.260
838.968	471.528
839.301	464.859
839.635	458.255
839.968	451.714
840.302	445.237
840.635	438.824
840.969	432.474
841.302	426.187
841.636	419.964
841.969	413.803
842.302	407.705
842.636	401.669
842.969	395.696
843.303	389.784
843.636	383.935
843.970	378.147
844.303	372.421
844.636	366.756
844.970	361.153
845.303	355.610
845.637	350.127
845.970	344.705
846.304	339.344
846.637	334.042
846.970	328.799
847.304	323.617
847.637	318.493
847.971	313.428
848.304	308.421
848.638	303.473
848.971	298.583
849.304	293.751
849.638	288.976
849.971	284.258
850.305	279.597
850.638	274.992
850.972	270.444
851.305	265.952
851.638	261.515
851.972	257.133
852.305	252.807
852.639	248.535
852.972	244.317
853.306	240.153
853.639	236.043
853.972	231.986
854.306	227.982
854.639	224.030
854.973	220.131
855.306	216.283
855.640	212.487
855.973	208.742
856.307	205.048
856.640	201.404
856.973	197.809
857.307	194.265
857.640	190.770
857.974	187.323
858.307	183.925
858.641	180.575
858.974	177.272
859.307	174.017
859.641	170.809
859.974	167.647
860.308	164.531
860.641	161.461
860.975	158.436
861.308	155.456
861.641	152.520
861.975	149.628
862.308	146.780
862.642	143.975
862.975	141.213
863.309	138.493
863.642	135.816
863.975	133.180
864.309	130.584
864.642	128.030
864.976	125.516
865.309	123.042
865.643	120.607
865.976	118.211
866.309	115.854
866.643	113.536
866.976	111.255
867.310	109.011
867.643	106.804
867.977	104.634
868.310	102.500
868.643	100.402
868.977	98.339
869.310	96.311
869.644	94.317
869.977	92.358
870.311	90.432
870.644	88.539
870.978	86.679
871.311	84.852
871.644	83.057
871.978	81.293
872.311	79.561
872.645	77.859
872.978	76.188
873.312	74.547
873.645	72.935
873.978	71.353
874.312	69.799
874.645	68.274
874.979	66.777
875.312	65.308
875.646	63.866
875.979	62.451
876.312	61.063
876.646	59.700
876.979	58.364
877.313	57.053
877.646	55.767
877.980	54.505
878.313	53.268
878.646	52.055
878.980	50.866
879.313	49.700
879.647	48.556
879.980	47.436
880.314	46.337
880.647	45.260
880.980	44.205
881.314	43.171
881.647	42.158
881.981	41.166
882.314	40.193
882.648	39.241
882.981	38.308
883.314	37.394
883.648	36.499
883.981	35.623
884.315	34.765
884.648	33.924
884.982	33.102
885.315	32.297
885.649	31.509
885.982	30.738
886.315	29.983
886.649	29.245
886.982	28.522
887.316	27.815
887.649	27.124
887.983	26.447
888.316	25.786
888.649	25.139
888.983	24.506
889.316	23.887
889.650	23.282
889.983	22.691
890.317	22.113
890.650	21.547
890.983	20.995
891.317	20.455
891.650	19.928
891.984	19.412
892.317	18.908
892.651	18.416
892.984	17.936
893.317	17.466
893.651	17.007
893.984	16.559
894.318	16.122
894.651	15.695
894.985	15.278
895.318	14.871
895.651	14.474
895.985	14.086
896.318	13.707
896.652	13.338
896.985	12.977
897.319	12.625
897.652	12.282
897.985	11.947
898.319	11.620
898.652	11.302
898.986	10.991
899.319	10.688
899.653	10.392
899.986	10.104
900.320	9.823
900.653	9.549
900.986	9.282
901.320	9.022
901.653	8.768
901.987	8.521
902.320	8.280
902.654	8.045
902.987	7.816
903.320	7.594
903.654	7.377
903.987	7.165
904.321	6.959
904.654	6.759
904.988	6.563
905.321	6.373
905.654	6.188
905.988	6.008
906.321	5.832
906.655	5.662
906.988	5.495
907.322	5.334
907.655	5.176
907.988	5.023
908.322	4.874
908.655	4.729
908.989	4.588
909.322	4.451
909.656	4.317
909.989	4.187
910.322	4.061
910.656	3.939
910.989	3.819
911.323	3.703
911.656	3.591
911.990	3.481
912.323	3.374
912.656	3.271
912.990	3.170
913.323	3.073
913.657	2.978
913.990	2.885
914.324	2.796
914.657	2.709
914.991	2.624
915.324	2.542
915.657	2.462
915.991	2.385
916.324	2.310
916.658	2.237
916.991	2.166
917.325	2.097
917.658	2.030
917.991	1.965
918.325	1.902
918.658	1.841
918.992	1.782
919.325	1.725
919.659	1.669
919.992	1.615
920.325	1.563
920.659	1.512
920.992	1.462
921.326	1.415
921.659	1.368
921.993	1.323
922.326	1.280
922.659	1.238
922.993	1.197
923.326	1.157
923.660	1.118
923.993	1.081
924.327	1.045
924.660	1.010
924.993	0.976
925.327	0.943
925.660	0.912
925.994	0.881
926.327	0.851
926.661	0.822
926.994	0.794
927.327	0.767
927.661	0.741
927.994	0.716
928.328	0.691
928.661	0.667
928.995	0.644
929.328	0.622
929.662	0.600
929.995	0.580
930.328	0.559
930.662	0.540
930.995	0.521
931.329	0.503
931.662	0.485
931.996	0.468
932.329	0.452
932.662	0.436
932.996	0.420
933.329	0.405
933.663	0.391
933.996	0.377
934.330	0.364
934.663	0.351
934.996	0.338
935.330	0.326
935.663	0.314
935.997	0.303
936.330	0.292
936.664	0.281
936.997	0.271
937.330	0.261
937.664	0.252
937.997	0.242
938.331	0.234
938.664	0.225
938.998	0.217
939.331	0.209
939.664	0.201
939.998	0.194
940.331	0.186
940.665	0.179
940.998	0.173
941.332	0.166
941.665	0.160
941.998	0.154
942.332	0.148
942.665	0.143
942.999	0.137
943.332	0.132
943.666	0.127
943.999	0.122
944.333	0.118
944.666	0.113
944.999	0.109
945.333	0.105
945.666	0.101
946.000	0.097
946.333	0.093
946.667	0.090
947.000	0.086
947.333	0.083
947.667	0.080
948.000	0.076
948.334	0.073
948.667	0.071
949.001	0.068
949.334	0.065
949.667	0.063
950.001	0.060
950.334	0.058
950.668	0.056
951.001	0.053
951.335	0.051
951.668	0.049
952.001	0.047
952.335	0.045
952.668	0.044
953.002	0.042
953.335	0.040
953.669	0.038
954.002	0.037
954.335	0.035
954.669	0.034
955.002	0.033
955.336	0.031
955.669	0.030
956.003	0.029
956.336	0.028
956.669	0.027
957.003	0.025
957.336	0.024
957.670	0.023
958.003	0.022
958.337	0.022
958.670	0.021
959.004	0.020
959.337	0.019
959.670	0.018
960.004	0.017
960.337	0.017
960.671	0.016
961.004	0.015
961.338	0.015
961.671	0.014
962.004	0.013
962.338	0.013
962.671	0.012
963.005	0.012
963.338	0.011
963.672	0.011
964.005	0.010
964.338	0.010
964.672	0.010
965.005	0.009
965.339	0.009
965.672	0.008
966.006	0.008
966.339	0.008
966.672	0.007
967.006	0.007
967.339	0.007
967.673	0.006
968.006	0.006
968.340	0.006
968.673	0.006
969.006	0.005
969.340	0.005
969.673	0.005
970.007	0.005
970.340	0.004
970.674	0.004
971.007	0.004
971.340	0.004
971.674	0.004
972.007	0.004
972.341	0.003
972.674	0.003
973.008	0.003
973.341	0.003
973.675	0.003
974.008	0.003
974.341	0.003
974.675	0.002
975.008	0.002
975.342	0.002
975.675	0.002
976.009	0.002
976.342	0.002
976.675	0.002
977.009	0.002
977.342	0.002
977.676	0.002
978.009	0.002
978.343	0.001
978.676	0.001
979.009	0.001
979.343	0.001
979.676	0.001
980.010	0.001
980.343	0.001
980.677	0.001
981.010	0.001
981.343	0.001
981.677	0.001
982.010	0.001
982.344	0.001
982.677	0.001
983.011	0.001
983.344	0.001
983.677	0.001
984.011	0.001
984.344	0.001
984.678	0.001
985.011	0.001
985.345	0.001
985.678	0.001
986.011	0.000
986.345	0.000
986.678	0.000
987.012	0.000
987.345	0.000
987.679	0.000
988.012	0.000
988.346	0.000
988.679	0.000
989.012	0.000
989.346	0.000
989.679	0.000
990.013	0.000
990.346	0.000
990.680	0.000
991.013	0.000
991.346	0.000
991.680	0.000
992.013	0.000
992.347	0.000
992.680	0.000
993.014	0.000
993.347	0.000
993.680	0.000
994.014	0.000
994.347	0.000
994.681	0.000
995.014	0.000
995.348	0.000
995.681	0.000
996.014	0.000
996.348	0.000
996.681	0.000
997.015	0.000
997.348	0.000
997.682	0.000
998.015	0.000
998.348	0.000
998.682	0.000
999.015	0.000
999.349	0.000
999.682	0.000
1000.016	0.000
1000.349	0.000
1000.682	0.000
1001.016	0.000
1001.349	0.000
1001.683	0.000
1002.016	0.000
1002.350	0.000
1002.683	0.000
1003.017	0.000
1003.350	0.000
1003.683	0.000
1004.017	0.000
1004.350	0.000
1004.684	0.000
1005.017	0.000
1005.351	0.000
1005.684	0.000
1006.017	0.000
1006.351	0.000
1006.684	0.000
1007.018	0.000
1007.351	0.000
1007.685	0.000
1008.018	0.000
1008.351	0.000
1008.685	0.000
1009.018	0.000
1009.352	0.000
1009.685	0.000
1010.019	0.000
1010.352	0.000
1010.685	0.000
1011.019	0.000
1011.352	0.000
1011.686	0.000
1012.019	0.000
1012.353	0.000
1012.686	0.000
1013.019	0.000
1013.353	0.000
1013.686	0.000
1014.020	0.000
1014.353	0.000
1014.687	0.000
1015.020	0.000
1015.353	0.000
1015.687	0.000
1016.020	0.000
1016.354	0.000
1016.687	0.000
1017.021	0.000
1017.354	0.000
1017.688	0.000
1018.021	0.000
1018.354	0.000
1018.688	0.000
1019.021	0.000
1019.355	0.000
1019.688	0.000
1020.022	0.000
1020.355	0.000
1020.688	0.000
1021.022	0.000
1021.355	0.000
1021.689	0.000
1022.022	0.000
1022.356	0.000
1022.689	0.000
