Data from repetition_1.txt_16-47-09-365.txt Node
Date: Sun Jun 13 23:27:09 CET 2021
User: fcossio
Spectrometer: FLMS15016
Trigger mode: 0
Integration Time (sec): 3.000000E-1Scans to average: 1
Electric dark correction enabled: true
Nonlinearity correction enabled: false
Boxcar width: 0
XAxis mode: Wavelengths
Number of Pixels in Spectrum: 2048
>>>>>Begin Spectral Data<<<<<
340.154	0.000
340.487	0.000
340.821	0.000
341.154	0.000
341.488	0.000
341.821	0.000
342.155	0.000
342.488	0.000
342.821	0.000
343.155	0.000
343.488	0.000
343.822	0.000
344.155	0.000
344.489	0.000
344.822	0.000
345.155	0.000
345.489	0.000
345.822	0.000
346.156	0.000
346.489	0.000
346.823	0.000
347.156	0.000
347.490	0.000
347.823	0.000
348.156	0.000
348.490	0.000
348.823	0.000
349.157	0.000
349.490	0.000
349.824	0.000
350.157	0.000
350.490	0.000
350.824	0.000
351.157	0.000
351.491	0.000
351.824	0.000
352.158	0.000
352.491	0.000
352.824	0.000
353.158	0.000
353.491	0.000
353.825	0.000
354.158	0.000
354.492	0.000
354.825	0.000
355.158	0.000
355.492	0.000
355.825	0.000
356.159	0.000
356.492	0.000
356.826	0.000
357.159	0.000
357.492	0.000
357.826	0.000
358.159	0.000
358.493	0.000
358.826	0.000
359.160	0.000
359.493	0.000
359.826	0.000
360.160	0.000
360.493	0.000
360.827	0.000
361.160	0.000
361.494	0.000
361.827	0.000
362.161	0.000
362.494	0.000
362.827	0.000
363.161	0.000
363.494	0.000
363.828	0.000
364.161	0.000
364.495	0.000
364.828	0.000
365.161	0.000
365.495	0.000
365.828	0.000
366.162	0.000
366.495	0.000
366.829	0.000
367.162	0.000
367.495	0.000
367.829	0.000
368.162	0.000
368.496	0.000
368.829	0.000
369.163	0.000
369.496	0.000
369.829	0.000
370.163	0.000
370.496	0.000
370.830	0.000
371.163	0.000
371.497	0.000
371.830	0.000
372.163	0.000
372.497	0.000
372.830	0.000
373.164	0.000
373.497	0.000
373.831	0.000
374.164	0.000
374.497	0.000
374.831	0.000
375.164	0.000
375.498	0.000
375.831	0.000
376.165	0.000
376.498	0.000
376.832	0.000
377.165	0.000
377.498	0.000
377.832	0.000
378.165	0.000
378.499	0.000
378.832	0.000
379.166	0.000
379.499	0.000
379.832	0.000
380.166	0.000
380.499	0.000
380.833	0.000
381.166	0.000
381.500	0.000
381.833	0.000
382.166	0.000
382.500	0.000
382.833	0.000
383.167	0.000
383.500	0.000
383.834	0.000
384.167	0.000
384.500	0.000
384.834	0.000
385.167	0.000
385.501	0.000
385.834	0.000
386.168	0.000
386.501	0.000
386.834	0.000
387.168	0.000
387.501	0.000
387.835	0.000
388.168	0.000
388.502	0.000
388.835	0.000
389.168	0.000
389.502	0.000
389.835	0.000
390.169	0.000
390.502	0.000
390.836	0.000
391.169	0.000
391.503	0.000
391.836	0.000
392.169	0.000
392.503	0.000
392.836	0.000
393.170	0.000
393.503	0.000
393.837	0.000
394.170	0.000
394.503	0.000
394.837	0.000
395.170	0.000
395.504	0.000
395.837	0.000
396.171	0.000
396.504	0.000
396.837	0.000
397.171	0.000
397.504	0.000
397.838	0.000
398.171	0.000
398.505	0.000
398.838	0.000
399.171	0.000
399.505	0.000
399.838	0.000
400.172	0.000
400.505	0.000
400.839	0.000
401.172	0.000
401.505	0.000
401.839	0.000
402.172	0.000
402.506	0.000
402.839	0.000
403.173	0.000
403.506	0.000
403.839	0.000
404.173	0.000
404.506	0.000
404.840	0.000
405.173	0.000
405.507	0.000
405.840	0.000
406.174	0.000
406.507	0.000
406.840	0.000
407.174	0.000
407.507	0.000
407.841	0.000
408.174	0.000
408.508	0.000
408.841	0.000
409.174	0.000
409.508	0.000
409.841	0.000
410.175	0.000
410.508	0.000
410.842	0.000
411.175	0.000
411.508	0.000
411.842	0.000
412.175	0.000
412.509	0.000
412.842	0.000
413.176	0.000
413.509	0.000
413.842	0.000
414.176	0.000
414.509	0.000
414.843	0.000
415.176	0.000
415.510	0.000
415.843	0.000
416.176	0.000
416.510	0.000
416.843	0.000
417.177	0.000
417.510	0.000
417.844	0.000
418.177	0.000
418.510	0.000
418.844	0.000
419.177	0.000
419.511	0.000
419.844	0.000
420.178	0.000
420.511	0.000
420.845	0.000
421.178	0.000
421.511	0.000
421.845	0.000
422.178	0.000
422.512	0.000
422.845	0.000
423.179	0.000
423.512	0.000
423.845	0.000
424.179	0.000
424.512	0.000
424.846	0.000
425.179	0.000
425.513	0.000
425.846	0.000
426.179	0.000
426.513	0.000
426.846	0.000
427.180	0.000
427.513	0.000
427.847	0.000
428.180	0.000
428.513	0.000
428.847	0.000
429.180	0.000
429.514	0.000
429.847	0.000
430.181	0.000
430.514	0.000
430.847	0.000
431.181	0.000
431.514	0.000
431.848	0.000
432.181	0.000
432.515	0.000
432.848	0.000
433.181	0.000
433.515	0.000
433.848	0.000
434.182	0.000
434.515	0.000
434.849	0.000
435.182	0.000
435.516	0.000
435.849	0.000
436.182	0.000
436.516	0.000
436.849	0.000
437.183	0.000
437.516	0.000
437.850	0.000
438.183	0.000
438.516	0.000
438.850	0.000
439.183	0.000
439.517	0.000
439.850	0.000
440.184	0.000
440.517	0.000
440.850	0.000
441.184	0.000
441.517	0.000
441.851	0.000
442.184	0.000
442.518	0.000
442.851	0.000
443.184	0.000
443.518	0.000
443.851	0.000
444.185	0.000
444.518	0.000
444.852	0.000
445.185	0.000
445.518	0.000
445.852	0.000
446.185	0.000
446.519	0.000
446.852	0.000
447.186	0.000
447.519	0.000
447.852	0.000
448.186	0.000
448.519	0.000
448.853	0.000
449.186	0.000
449.520	0.000
449.853	0.000
450.187	0.000
450.520	0.000
450.853	0.000
451.187	0.000
451.520	0.000
451.854	0.000
452.187	0.000
452.521	0.000
452.854	0.000
453.187	0.000
453.521	0.000
453.854	0.000
454.188	0.000
454.521	0.000
454.855	0.000
455.188	0.000
455.521	0.000
455.855	0.000
456.188	0.000
456.522	0.000
456.855	0.000
457.189	0.000
457.522	0.000
457.855	0.000
458.189	0.000
458.522	0.000
458.856	0.000
459.189	0.000
459.523	0.000
459.856	0.000
460.189	0.000
460.523	0.000
460.856	0.000
461.190	0.000
461.523	0.000
461.857	0.000
462.190	0.000
462.523	0.000
462.857	0.000
463.190	0.000
463.524	0.000
463.857	0.000
464.191	0.000
464.524	0.000
464.858	0.000
465.191	0.000
465.524	0.000
465.858	0.000
466.191	0.000
466.525	0.000
466.858	0.000
467.192	0.000
467.525	0.000
467.858	0.000
468.192	0.000
468.525	0.000
468.859	0.000
469.192	0.000
469.526	0.000
469.859	0.000
470.192	0.000
470.526	0.000
470.859	0.000
471.193	0.000
471.526	0.000
471.860	0.000
472.193	0.000
472.526	0.000
472.860	0.000
473.193	0.000
473.527	0.000
473.860	0.000
474.194	0.000
474.527	0.000
474.860	0.000
475.194	0.000
475.527	0.000
475.861	0.000
476.194	0.000
476.528	0.000
476.861	0.000
477.194	0.000
477.528	0.000
477.861	0.000
478.195	0.000
478.528	0.000
478.862	0.000
479.195	0.000
479.529	0.000
479.862	0.000
480.195	0.000
480.529	0.000
480.862	0.000
481.196	0.000
481.529	0.000
481.863	0.000
482.196	0.000
482.529	0.000
482.863	0.000
483.196	0.000
483.530	0.000
483.863	0.000
484.197	0.000
484.530	0.000
484.863	0.000
485.197	0.000
485.530	0.000
485.864	0.000
486.197	0.000
486.531	0.000
486.864	0.000
487.197	0.000
487.531	0.000
487.864	0.000
488.198	0.000
488.531	0.000
488.865	0.000
489.198	0.000
489.531	0.000
489.865	0.000
490.198	0.000
490.532	0.000
490.865	0.000
491.199	0.000
491.532	0.000
491.865	0.000
492.199	0.000
492.532	0.000
492.866	0.000
493.199	0.000
493.533	0.000
493.866	0.000
494.200	0.000
494.533	0.000
494.866	0.000
495.200	0.000
495.533	0.000
495.867	0.000
496.200	0.000
496.534	0.000
496.867	0.000
497.200	0.000
497.534	0.000
497.867	0.000
498.201	0.000
498.534	0.000
498.868	0.000
499.201	0.000
499.534	0.000
499.868	0.000
500.201	0.000
500.535	0.000
500.868	0.000
501.202	0.000
501.535	0.000
501.868	0.000
502.202	0.000
502.535	0.000
502.869	0.000
503.202	0.000
503.536	0.000
503.869	0.000
504.202	0.000
504.536	0.000
504.869	0.000
505.203	0.000
505.536	0.000
505.870	0.000
506.203	0.000
506.536	0.000
506.870	0.000
507.203	0.000
507.537	0.000
507.870	0.000
508.204	0.000
508.537	0.000
508.871	0.000
509.204	0.000
509.537	0.000
509.871	0.000
510.204	0.000
510.538	0.000
510.871	0.000
511.205	0.000
511.538	0.000
511.871	0.000
512.205	0.000
512.538	0.000
512.872	0.000
513.205	0.000
513.539	0.000
513.872	0.000
514.205	0.000
514.539	0.000
514.872	0.000
515.206	0.000
515.539	0.000
515.873	0.000
516.206	0.000
516.539	0.000
516.873	0.000
517.206	0.000
517.540	0.000
517.873	0.000
518.207	0.000
518.540	0.000
518.873	0.000
519.207	0.000
519.540	0.000
519.874	0.000
520.207	0.000
520.541	0.000
520.874	0.000
521.207	0.000
521.541	0.000
521.874	0.000
522.208	0.000
522.541	0.000
522.875	0.000
523.208	0.000
523.542	0.000
523.875	0.000
524.208	0.000
524.542	0.000
524.875	0.000
525.209	0.000
525.542	0.000
525.876	0.000
526.209	0.000
526.542	0.000
526.876	0.000
527.209	0.000
527.543	0.000
527.876	0.000
528.210	0.000
528.543	0.000
528.876	0.000
529.210	0.000
529.543	0.000
529.877	0.000
530.210	0.000
530.544	0.000
530.877	0.000
531.210	0.000
531.544	0.000
531.877	0.000
532.211	0.000
532.544	0.000
532.878	0.000
533.211	0.000
533.544	0.000
533.878	0.000
534.211	0.000
534.545	0.000
534.878	0.000
535.212	0.000
535.545	0.000
535.878	0.000
536.212	0.000
536.545	0.000
536.879	0.000
537.212	0.000
537.546	0.000
537.879	0.000
538.213	0.000
538.546	0.000
538.879	0.000
539.213	0.000
539.546	0.000
539.880	0.000
540.213	0.000
540.547	0.000
540.880	0.000
541.213	0.000
541.547	0.000
541.880	0.000
542.214	0.000
542.547	0.000
542.881	0.000
543.214	0.000
543.547	0.000
543.881	0.000
544.214	0.000
544.548	0.000
544.881	0.001
545.215	0.001
545.548	0.001
545.881	0.001
546.215	0.001
546.548	0.001
546.882	0.001
547.215	0.001
547.549	0.001
547.882	0.001
548.215	0.001
548.549	0.002
548.882	0.002
549.216	0.002
549.549	0.002
549.883	0.002
550.216	0.003
550.549	0.003
550.883	0.003
551.216	0.004
551.550	0.004
551.883	0.004
552.217	0.005
552.550	0.005
552.884	0.006
553.217	0.006
553.550	0.007
553.884	0.008
554.217	0.008
554.551	0.009
554.884	0.010
555.218	0.011
555.551	0.012
555.884	0.013
556.218	0.015
556.551	0.016
556.885	0.018
557.218	0.019
557.552	0.021
557.885	0.023
558.218	0.025
558.552	0.028
558.885	0.030
559.219	0.033
559.552	0.036
559.886	0.040
560.219	0.043
560.552	0.047
560.886	0.052
561.219	0.057
561.553	0.062
561.886	0.067
562.220	0.073
562.553	0.080
562.886	0.087
563.220	0.095
563.553	0.103
563.887	0.112
564.220	0.122
564.554	0.133
564.887	0.144
565.220	0.157
565.554	0.170
565.887	0.185
566.221	0.201
566.554	0.218
566.888	0.237
567.221	0.257
567.555	0.278
567.888	0.302
568.221	0.327
568.555	0.354
568.888	0.383
569.222	0.415
569.555	0.448
569.889	0.485
570.222	0.524
570.555	0.567
570.889	0.612
571.222	0.661
571.556	0.714
571.889	0.770
572.223	0.831
572.556	0.896
572.889	0.966
573.223	1.041
573.556	1.122
573.890	1.208
574.223	1.300
574.557	1.399
574.890	1.506
575.223	1.619
575.557	1.740
575.890	1.870
576.224	2.009
576.557	2.158
576.891	2.316
577.224	2.486
577.557	2.666
577.891	2.859
578.224	3.065
578.558	3.284
578.891	3.518
579.225	3.768
579.558	4.033
579.892	4.316
580.225	4.616
580.558	4.936
580.892	5.276
581.225	5.638
581.559	6.022
581.892	6.431
582.226	6.864
582.559	7.324
582.892	7.812
583.226	8.330
583.559	8.879
583.893	9.461
584.226	10.077
584.560	10.729
584.893	11.420
585.226	12.151
585.560	12.924
585.893	13.741
586.227	14.605
586.560	15.517
586.894	16.481
587.227	17.498
587.560	18.572
587.894	19.704
588.227	20.898
588.561	22.156
588.894	23.482
589.228	24.878
589.561	26.348
589.894	27.894
590.228	29.521
590.561	31.232
590.895	33.030
591.228	34.919
591.562	36.904
591.895	38.987
592.228	41.172
592.562	43.465
592.895	45.870
593.229	48.390
593.562	51.031
593.896	53.796
594.229	56.691
594.563	59.721
594.896	62.890
595.229	66.204
595.563	69.668
595.896	73.287
596.230	77.067
596.563	81.012
596.897	85.130
597.230	89.425
597.563	93.904
597.897	98.572
598.230	103.435
598.564	108.499
598.897	113.772
599.231	119.258
599.564	124.965
599.897	130.898
600.231	137.064
600.564	143.470
600.898	150.123
601.231	157.028
601.565	164.193
601.898	171.625
602.231	179.329
602.565	187.313
602.898	195.583
603.232	204.147
603.565	213.011
603.899	222.181
604.232	231.664
604.565	241.467
604.899	251.596
605.232	262.058
605.566	272.860
605.899	284.007
606.233	295.505
606.566	307.361
606.899	319.581
607.233	332.170
607.566	345.135
607.900	358.480
608.233	372.211
608.567	386.333
608.900	400.851
609.234	415.770
609.567	431.094
609.900	446.827
610.234	462.973
610.567	479.536
610.901	496.520
611.234	513.926
611.568	531.759
611.901	550.020
612.234	568.712
612.568	587.836
612.901	607.394
613.235	627.387
613.568	647.815
613.902	668.678
614.235	689.976
614.568	711.709
614.902	733.875
615.235	756.474
615.569	779.502
615.902	802.958
616.236	826.838
616.569	851.140
616.902	875.859
617.236	900.991
617.569	926.531
617.903	952.474
618.236	978.814
618.570	1005.545
618.903	1032.660
619.236	1060.151
619.570	1088.011
619.903	1116.231
620.237	1144.803
620.570	1173.717
620.904	1202.964
621.237	1232.533
621.570	1262.413
621.904	1292.593
622.237	1323.062
622.571	1353.807
622.904	1384.816
623.238	1416.076
623.571	1447.573
623.905	1479.294
624.238	1511.225
624.571	1543.350
624.905	1575.655
625.238	1608.126
625.572	1640.745
625.905	1673.498
626.239	1706.369
626.572	1739.340
626.905	1772.396
627.239	1805.520
627.572	1838.694
627.906	1871.903
628.239	1905.128
628.573	1938.352
628.906	1971.558
629.239	2004.728
629.573	2037.846
629.906	2070.892
630.240	2103.851
630.573	2136.705
630.907	2169.436
631.240	2202.028
631.573	2234.463
631.907	2266.725
632.240	2298.796
632.574	2330.661
632.907	2362.304
633.241	2393.709
633.574	2424.859
633.907	2455.741
634.241	2486.339
634.574	2516.640
634.908	2546.628
635.241	2576.290
635.575	2605.614
635.908	2634.586
636.241	2663.195
636.575	2691.430
636.908	2719.278
637.242	2746.731
637.575	2773.777
637.909	2800.408
638.242	2826.615
638.576	2852.390
638.909	2877.726
639.242	2902.615
639.576	2927.053
639.909	2951.033
640.243	2974.550
640.576	2997.602
640.910	3020.183
641.243	3042.292
641.576	3063.927
641.910	3085.086
642.243	3105.768
642.577	3125.973
642.910	3145.702
643.244	3164.957
643.577	3183.739
643.910	3202.050
644.244	3219.894
644.577	3237.275
644.911	3254.196
645.244	3270.663
645.578	3286.681
645.911	3302.257
646.244	3317.396
646.578	3332.105
646.911	3346.392
647.245	3360.265
647.578	3373.732
647.912	3386.801
648.245	3399.482
648.578	3411.784
648.912	3423.717
649.245	3435.290
649.579	3446.513
649.912	3457.397
650.246	3467.953
650.579	3478.191
650.912	3488.122
651.246	3497.756
651.579	3507.106
651.913	3516.181
652.246	3524.992
652.580	3533.552
652.913	3541.869
653.247	3549.956
653.580	3557.823
653.913	3565.480
654.247	3572.938
654.580	3580.206
654.914	3587.295
655.247	3594.215
655.581	3600.973
655.914	3607.580
656.247	3614.044
656.581	3620.373
656.914	3626.575
657.248	3632.658
657.581	3638.629
657.915	3644.494
658.248	3650.259
658.581	3655.931
658.915	3661.514
659.248	3667.013
659.582	3672.433
659.915	3677.777
660.249	3683.048
660.582	3688.248
660.915	3693.381
661.249	3698.447
661.582	3703.449
661.916	3708.385
662.249	3713.256
662.583	3718.062
662.916	3722.802
663.249	3727.473
663.583	3732.074
663.916	3736.603
664.250	3741.055
664.583	3745.428
664.917	3749.718
665.250	3753.919
665.583	3758.027
665.917	3762.037
666.250	3765.942
666.584	3769.737
666.917	3773.415
667.251	3776.969
667.584	3780.391
667.918	3783.675
668.251	3786.813
668.584	3789.795
668.918	3792.615
669.251	3795.262
669.585	3797.730
669.918	3800.008
670.252	3802.087
670.585	3803.959
670.918	3805.614
671.252	3807.043
671.585	3808.237
671.919	3809.185
672.252	3809.879
672.586	3810.310
672.919	3810.468
673.252	3810.343
673.586	3809.927
673.919	3809.212
674.253	3808.187
674.586	3806.846
674.920	3805.178
675.253	3803.176
675.586	3800.833
675.920	3798.141
676.253	3795.091
676.587	3791.678
676.920	3787.895
677.254	3783.735
677.587	3779.193
677.920	3774.262
678.254	3768.938
678.587	3763.216
678.921	3757.092
679.254	3750.561
679.588	3743.620
679.921	3736.267
680.254	3728.498
680.588	3720.312
680.921	3711.707
681.255	3702.682
681.588	3693.237
681.922	3683.370
682.255	3673.084
682.589	3662.377
682.922	3651.253
683.255	3639.713
683.589	3627.758
683.922	3615.393
684.256	3602.620
684.589	3589.443
684.923	3575.867
685.256	3561.896
685.589	3547.535
685.923	3532.791
686.256	3517.669
686.590	3502.177
686.923	3486.320
687.257	3470.107
687.590	3453.545
687.923	3436.643
688.257	3419.410
688.590	3401.853
688.924	3383.983
689.257	3365.810
689.591	3347.343
689.924	3328.593
690.257	3309.570
690.591	3290.285
690.924	3270.750
691.258	3250.976
691.591	3230.974
691.925	3210.757
692.258	3190.337
692.591	3169.725
692.925	3148.935
693.258	3127.978
693.592	3106.868
693.925	3085.618
694.259	3064.239
694.592	3042.746
694.925	3021.151
695.259	2999.468
695.592	2977.710
695.926	2955.889
696.259	2934.019
696.593	2912.113
696.926	2890.185
697.260	2868.246
697.593	2846.312
697.926	2824.393
698.260	2802.503
698.593	2780.656
698.927	2758.862
699.260	2737.136
699.594	2715.489
699.927	2693.934
700.260	2672.483
700.594	2651.147
700.927	2629.938
701.261	2608.868
701.594	2587.948
701.928	2567.190
702.261	2546.603
702.594	2526.200
702.928	2505.989
703.261	2485.982
703.595	2466.187
703.928	2446.616
704.262	2427.277
704.595	2408.180
704.928	2389.333
705.262	2370.745
705.595	2352.424
705.929	2334.378
706.262	2316.616
706.596	2299.143
706.929	2281.969
707.262	2265.099
707.596	2248.540
707.929	2232.298
708.263	2216.380
708.596	2200.791
708.930	2185.536
709.263	2170.621
709.596	2156.050
709.930	2141.827
710.263	2127.958
710.597	2114.446
710.930	2101.294
711.264	2088.507
711.597	2076.086
711.931	2064.035
712.264	2052.356
712.597	2041.052
712.931	2030.124
713.264	2019.574
713.598	2009.404
713.931	1999.614
714.265	1990.205
714.598	1981.179
714.931	1972.535
715.265	1964.273
715.598	1956.394
715.932	1948.897
716.265	1941.781
716.599	1935.046
716.932	1928.690
717.265	1922.712
717.599	1917.111
717.932	1911.885
718.266	1907.032
718.599	1902.550
718.933	1898.437
719.266	1894.689
719.599	1891.305
719.933	1888.281
720.266	1885.614
720.600	1883.302
720.933	1881.340
721.267	1879.725
721.600	1878.454
721.933	1877.522
722.267	1876.925
722.600	1876.660
722.934	1876.721
723.267	1877.105
723.601	1877.807
723.934	1878.821
724.267	1880.144
724.601	1881.770
724.934	1883.694
725.268	1885.911
725.601	1888.416
725.935	1891.203
726.268	1894.266
726.602	1897.601
726.935	1901.202
727.268	1905.062
727.602	1909.176
727.935	1913.538
728.269	1918.142
728.602	1922.982
728.936	1928.052
729.269	1933.345
729.602	1938.857
729.936	1944.579
730.269	1950.506
730.603	1956.632
730.936	1962.950
731.270	1969.454
731.603	1976.137
731.936	1982.993
732.270	1990.016
732.603	1997.197
732.937	2004.533
733.270	2012.014
733.604	2019.636
733.937	2027.391
734.270	2035.273
734.604	2043.275
734.937	2051.390
735.271	2059.613
735.604	2067.936
735.938	2076.353
736.271	2084.857
736.604	2093.442
736.938	2102.101
737.271	2110.828
737.605	2119.616
737.938	2128.459
738.272	2137.351
738.605	2146.284
738.938	2155.253
739.272	2164.252
739.605	2173.273
739.939	2182.312
740.272	2191.361
740.606	2200.415
740.939	2209.467
741.273	2218.512
741.606	2227.544
741.939	2236.556
742.273	2245.544
742.606	2254.500
742.940	2263.420
743.273	2272.298
743.607	2281.128
743.940	2289.905
744.273	2298.624
744.607	2307.278
744.940	2315.864
745.274	2324.375
745.607	2332.807
745.941	2341.154
746.274	2349.413
746.607	2357.577
746.941	2365.643
747.274	2373.605
747.608	2381.459
747.941	2389.201
748.275	2396.826
748.608	2404.330
748.941	2411.709
749.275	2418.959
749.608	2426.076
749.942	2433.056
750.275	2439.895
750.609	2446.590
750.942	2453.137
751.275	2459.532
751.609	2465.773
751.942	2471.857
752.276	2477.779
752.609	2483.537
752.943	2489.128
753.276	2494.550
753.609	2499.800
753.943	2504.874
754.276	2509.772
754.610	2514.489
754.943	2519.025
755.277	2523.376
755.610	2527.542
755.944	2531.519
756.277	2535.307
756.610	2538.903
756.944	2542.306
757.277	2545.515
757.611	2548.527
757.944	2551.343
758.278	2553.960
758.611	2556.377
758.944	2558.595
759.278	2560.611
759.611	2562.425
759.945	2564.036
760.278	2565.445
760.612	2566.650
760.945	2567.650
761.278	2568.447
761.612	2569.039
761.945	2569.427
762.279	2569.611
762.612	2569.590
762.946	2569.366
763.279	2568.937
763.612	2568.306
763.946	2567.471
764.279	2566.434
764.613	2565.196
764.946	2563.757
765.280	2562.118
765.613	2560.280
765.946	2558.243
766.280	2556.010
766.613	2553.580
766.947	2550.956
767.280	2548.138
767.614	2545.128
767.947	2541.927
768.280	2538.537
768.614	2534.959
768.947	2531.194
769.281	2527.245
769.614	2523.113
769.948	2518.800
770.281	2514.308
770.615	2509.638
770.948	2504.792
771.281	2499.772
771.615	2494.581
771.948	2489.221
772.282	2483.693
772.615	2477.999
772.949	2472.142
773.282	2466.124
773.615	2459.947
773.949	2453.613
774.282	2447.125
774.616	2440.485
774.949	2433.695
775.283	2426.758
775.616	2419.676
775.949	2412.451
776.283	2405.087
776.616	2397.584
776.950	2389.946
777.283	2382.176
777.617	2374.275
777.950	2366.246
778.283	2358.092
778.617	2349.815
778.950	2341.418
779.284	2332.902
779.617	2324.272
779.951	2315.529
780.284	2306.675
780.617	2297.714
780.951	2288.647
781.284	2279.477
781.618	2270.208
781.951	2260.840
782.285	2251.377
782.618	2241.821
782.951	2232.175
783.285	2222.440
783.618	2212.621
783.952	2202.718
784.285	2192.734
784.619	2182.672
784.952	2172.533
785.286	2162.321
785.619	2152.038
785.952	2141.686
786.286	2131.267
786.619	2120.783
786.953	2110.237
787.286	2099.631
787.620	2088.968
787.953	2078.248
788.286	2067.475
788.620	2056.650
788.953	2045.777
789.287	2034.855
789.620	2023.889
789.954	2012.879
790.287	2001.828
790.620	1990.738
790.954	1979.610
791.287	1968.447
791.621	1957.250
791.954	1946.022
792.288	1934.763
792.621	1923.477
792.954	1912.163
793.288	1900.826
793.621	1889.465
793.955	1878.082
794.288	1866.680
794.622	1855.260
794.955	1843.823
795.288	1832.372
795.622	1820.907
795.955	1809.429
796.289	1797.942
796.622	1786.445
796.956	1774.940
797.289	1763.430
797.623	1751.914
797.956	1740.394
798.289	1728.872
798.623	1717.350
798.956	1705.827
799.290	1694.305
799.623	1682.786
799.957	1671.271
800.290	1659.761
800.623	1648.257
800.957	1636.759
801.290	1625.270
801.624	1613.790
801.957	1602.320
802.291	1590.861
802.624	1579.415
802.957	1567.981
803.291	1556.562
803.624	1545.157
803.958	1533.768
804.291	1522.396
804.625	1511.041
804.958	1499.705
805.291	1488.388
805.625	1477.090
805.958	1465.814
806.292	1454.559
806.625	1443.326
806.959	1432.116
807.292	1420.929
807.625	1409.767
807.959	1398.630
808.292	1387.519
808.626	1376.433
808.959	1365.375
809.293	1354.344
809.626	1343.342
809.959	1332.368
810.293	1321.423
810.626	1310.509
810.960	1299.624
811.293	1288.771
811.627	1277.949
811.960	1267.159
812.294	1256.402
812.627	1245.678
812.960	1234.987
813.294	1224.330
813.627	1213.708
813.961	1203.121
814.294	1192.569
814.628	1182.053
814.961	1171.574
815.294	1161.131
815.628	1150.725
815.961	1140.357
816.295	1130.027
816.628	1119.736
816.962	1109.483
817.295	1099.269
817.628	1089.096
817.962	1078.962
818.295	1068.869
818.629	1058.816
818.962	1048.805
819.296	1038.835
819.629	1028.907
819.962	1019.021
820.296	1009.178
820.629	999.378
820.963	989.621
821.296	979.907
821.630	970.238
821.963	960.613
822.296	951.033
822.630	941.498
822.963	932.008
823.297	922.563
823.630	913.165
823.964	903.812
824.297	894.506
824.630	885.248
824.964	876.036
825.297	866.871
825.631	857.755
825.964	848.686
826.298	839.666
826.631	830.694
826.965	821.771
827.298	812.897
827.631	804.073
827.965	795.298
828.298	786.574
828.632	777.899
828.965	769.275
829.299	760.701
829.632	752.179
829.965	743.708
830.299	735.288
830.632	726.919
830.966	718.603
831.299	710.339
831.633	702.127
831.966	693.967
832.299	685.860
832.633	677.806
832.966	669.806
833.300	661.858
833.633	653.964
833.967	646.124
834.300	638.338
834.633	630.605
834.967	622.927
835.300	615.304
835.634	607.734
835.967	600.220
836.301	592.760
836.634	585.355
836.967	578.006
837.301	570.711
837.634	563.472
837.968	556.289
838.301	549.160
838.635	542.088
838.968	535.071
839.301	528.110
839.635	521.205
839.968	514.356
840.302	507.564
840.635	500.827
840.969	494.146
841.302	487.522
841.636	480.954
841.969	474.442
842.302	467.986
842.636	461.587
842.969	455.244
843.303	448.958
843.636	442.727
843.970	436.554
844.303	430.436
844.636	424.375
844.970	418.370
845.303	412.421
845.637	406.529
845.970	400.693
846.304	394.912
846.637	389.188
846.970	383.520
847.304	377.907
847.637	372.351
847.971	366.850
848.304	361.404
848.638	356.014
848.971	350.680
849.304	345.400
849.638	340.176
849.971	335.007
850.305	329.892
850.638	324.833
850.972	319.827
851.305	314.876
851.638	309.980
851.972	305.137
852.305	300.348
852.639	295.612
852.972	290.931
853.306	286.302
853.639	281.726
853.972	277.203
854.306	272.733
854.639	268.315
854.973	263.949
855.306	259.635
855.640	255.373
855.973	251.162
856.307	247.003
856.640	242.894
856.973	238.836
857.307	234.828
857.640	230.870
857.974	226.962
858.307	223.103
858.641	219.294
858.974	215.534
859.307	211.822
859.641	208.159
859.974	204.543
860.308	200.976
860.641	197.455
860.975	193.982
861.308	190.555
861.641	187.175
861.975	183.841
862.308	180.553
862.642	177.310
862.975	174.112
863.309	170.959
863.642	167.850
863.975	164.785
864.309	161.764
864.642	158.787
864.976	155.852
865.309	152.960
865.643	150.110
865.976	147.302
866.309	144.535
866.643	141.809
866.976	139.125
867.310	136.480
867.643	133.876
867.977	131.311
868.310	128.786
868.643	126.299
868.977	123.851
869.310	121.442
869.644	119.069
869.977	116.735
870.311	114.437
870.644	112.176
870.978	109.951
871.311	107.761
871.644	105.608
871.978	103.489
872.311	101.405
872.645	99.355
872.978	97.340
873.312	95.357
873.645	93.408
873.978	91.492
874.312	89.608
874.645	87.756
874.979	85.936
875.312	84.147
875.646	82.389
875.979	80.661
876.312	78.963
876.646	77.295
876.979	75.657
877.313	74.047
877.646	72.466
877.980	70.914
878.313	69.389
878.646	67.892
878.980	66.421
879.313	64.978
879.647	63.561
879.980	62.170
880.314	60.805
880.647	59.465
880.980	58.150
881.314	56.860
881.647	55.594
881.981	54.352
882.314	53.134
882.648	51.939
882.981	50.767
883.314	49.617
883.648	48.490
883.981	47.384
884.315	46.301
884.648	45.238
884.982	44.196
885.315	43.175
885.649	42.175
885.982	41.194
886.315	40.233
886.649	39.291
886.982	38.368
887.316	37.464
887.649	36.579
887.983	35.712
888.316	34.862
888.649	34.030
888.983	33.215
889.316	32.418
889.650	31.637
889.983	30.872
890.317	30.123
890.650	29.391
890.983	28.674
891.317	27.972
891.650	27.285
891.984	26.613
892.317	25.955
892.651	25.312
892.984	24.683
893.317	24.068
893.651	23.466
893.984	22.877
894.318	22.301
894.651	21.738
894.985	21.188
895.318	20.650
895.651	20.124
895.985	19.610
896.318	19.108
896.652	18.617
896.985	18.137
897.319	17.668
897.652	17.210
897.985	16.762
898.319	16.325
898.652	15.898
898.986	15.481
899.319	15.074
899.653	14.676
899.986	14.288
900.320	13.909
900.653	13.538
900.986	13.177
901.320	12.824
901.653	12.480
901.987	12.144
902.320	11.816
902.654	11.496
902.987	11.184
903.320	10.880
903.654	10.583
903.987	10.293
904.321	10.010
904.654	9.735
904.988	9.466
905.321	9.204
905.654	8.949
905.988	8.699
906.321	8.457
906.655	8.220
906.988	7.989
907.322	7.764
907.655	7.545
907.988	7.332
908.322	7.124
908.655	6.921
908.989	6.724
909.322	6.531
909.656	6.344
909.989	6.162
910.322	5.984
910.656	5.811
910.989	5.643
911.323	5.479
911.656	5.319
911.990	5.164
912.323	5.013
912.656	4.865
912.990	4.722
913.323	4.583
913.657	4.447
913.990	4.315
914.324	4.187
914.657	4.062
914.991	3.941
915.324	3.823
915.657	3.708
915.991	3.596
916.324	3.487
916.658	3.382
916.991	3.279
917.325	3.179
917.658	3.082
917.991	2.988
918.325	2.897
918.658	2.808
918.992	2.721
919.325	2.637
919.659	2.555
919.992	2.476
920.325	2.399
920.659	2.324
920.992	2.252
921.326	2.181
921.659	2.112
921.993	2.046
922.326	1.981
922.659	1.919
922.993	1.858
923.326	1.799
923.660	1.741
923.993	1.686
924.327	1.632
924.660	1.579
924.993	1.529
925.327	1.479
925.660	1.431
925.994	1.385
926.327	1.340
926.661	1.296
926.994	1.254
927.327	1.213
927.661	1.173
927.994	1.135
928.328	1.097
928.661	1.061
928.995	1.026
929.328	0.992
929.662	0.959
929.995	0.927
930.328	0.896
930.662	0.866
930.995	0.837
931.329	0.809
931.662	0.782
931.996	0.755
932.329	0.730
932.662	0.705
932.996	0.681
933.329	0.658
933.663	0.635
933.996	0.614
934.330	0.592
934.663	0.572
934.996	0.552
935.330	0.533
935.663	0.515
935.997	0.497
936.330	0.480
936.664	0.463
936.997	0.447
937.330	0.431
937.664	0.416
937.997	0.401
938.331	0.387
938.664	0.374
938.998	0.360
939.331	0.348
939.664	0.335
939.998	0.323
940.331	0.312
940.665	0.301
940.998	0.290
941.332	0.280
941.665	0.269
941.998	0.260
942.332	0.250
942.665	0.241
942.999	0.233
943.332	0.224
943.666	0.216
943.999	0.208
944.333	0.200
944.666	0.193
944.999	0.186
945.333	0.179
945.666	0.173
946.000	0.166
946.333	0.160
946.667	0.154
947.000	0.148
947.333	0.143
947.667	0.137
948.000	0.132
948.334	0.127
948.667	0.123
949.001	0.118
949.334	0.114
949.667	0.109
950.001	0.105
950.334	0.101
950.668	0.097
951.001	0.094
951.335	0.090
951.668	0.087
952.001	0.083
952.335	0.080
952.668	0.077
953.002	0.074
953.335	0.071
953.669	0.068
954.002	0.066
954.335	0.063
954.669	0.061
955.002	0.058
955.336	0.056
955.669	0.054
956.003	0.052
956.336	0.050
956.669	0.048
957.003	0.046
957.336	0.044
957.670	0.042
958.003	0.041
958.337	0.039
958.670	0.037
959.004	0.036
959.337	0.035
959.670	0.033
960.004	0.032
960.337	0.031
960.671	0.029
961.004	0.028
961.338	0.027
961.671	0.026
962.004	0.025
962.338	0.024
962.671	0.023
963.005	0.022
963.338	0.021
963.672	0.020
964.005	0.019
964.338	0.019
964.672	0.018
965.005	0.017
965.339	0.016
965.672	0.016
966.006	0.015
966.339	0.014
966.672	0.014
967.006	0.013
967.339	0.013
967.673	0.012
968.006	0.012
968.340	0.011
968.673	0.011
969.006	0.010
969.340	0.010
969.673	0.009
970.007	0.009
970.340	0.009
970.674	0.008
971.007	0.008
971.340	0.008
971.674	0.007
972.007	0.007
972.341	0.007
972.674	0.006
973.008	0.006
973.341	0.006
973.675	0.006
974.008	0.005
974.341	0.005
974.675	0.005
975.008	0.005
975.342	0.004
975.675	0.004
976.009	0.004
976.342	0.004
976.675	0.004
977.009	0.004
977.342	0.003
977.676	0.003
978.009	0.003
978.343	0.003
978.676	0.003
979.009	0.003
979.343	0.003
979.676	0.002
980.010	0.002
980.343	0.002
980.677	0.002
981.010	0.002
981.343	0.002
981.677	0.002
982.010	0.002
982.344	0.002
982.677	0.002
983.011	0.002
983.344	0.001
983.677	0.001
984.011	0.001
984.344	0.001
984.678	0.001
985.011	0.001
985.345	0.001
985.678	0.001
986.011	0.001
986.345	0.001
986.678	0.001
987.012	0.001
987.345	0.001
987.679	0.001
988.012	0.001
988.346	0.001
988.679	0.001
989.012	0.001
989.346	0.001
989.679	0.001
990.013	0.001
990.346	0.001
990.680	0.001
991.013	0.001
991.346	0.000
991.680	0.000
992.013	0.000
992.347	0.000
992.680	0.000
993.014	0.000
993.347	0.000
993.680	0.000
994.014	0.000
994.347	0.000
994.681	0.000
995.014	0.000
995.348	0.000
995.681	0.000
996.014	0.000
996.348	0.000
996.681	0.000
997.015	0.000
997.348	0.000
997.682	0.000
998.015	0.000
998.348	0.000
998.682	0.000
999.015	0.000
999.349	0.000
999.682	0.000
1000.016	0.000
1000.349	0.000
1000.682	0.000
1001.016	0.000
1001.349	0.000
1001.683	0.000
1002.016	0.000
1002.350	0.000
1002.683	0.000
1003.017	0.000
1003.350	0.000
1003.683	0.000
1004.017	0.000
1004.350	0.000
1004.684	0.000
1005.017	0.000
1005.351	0.000
1005.684	0.000
1006.017	0.000
1006.351	0.000
1006.684	0.000
1007.018	0.000
1007.351	0.000
1007.685	0.000
1008.018	0.000
1008.351	0.000
1008.685	0.000
1009.018	0.000
1009.352	0.000
1009.685	0.000
1010.019	0.000
1010.352	0.000
1010.685	0.000
1011.019	0.000
1011.352	0.000
1011.686	0.000
1012.019	0.000
1012.353	0.000
1012.686	0.000
1013.019	0.000
1013.353	0.000
1013.686	0.000
1014.020	0.000
1014.353	0.000
1014.687	0.000
1015.020	0.000
1015.353	0.000
1015.687	0.000
1016.020	0.000
1016.354	0.000
1016.687	0.000
1017.021	0.000
1017.354	0.000
1017.688	0.000
1018.021	0.000
1018.354	0.000
1018.688	0.000
1019.021	0.000
1019.355	0.000
1019.688	0.000
1020.022	0.000
1020.355	0.000
1020.688	0.000
1021.022	0.000
1021.355	0.000
1021.689	0.000
1022.022	0.000
1022.356	0.000
1022.689	0.000
