Data from repetition_0.txt_16-47-09-365.txt Node
Date: Sun Jun 13 23:27:09 CET 2021
User: fcossio
Spectrometer: FLMS15016
Trigger mode: 0
Integration Time (sec): 3.000000E-1Scans to average: 1
Electric dark correction enabled: true
Nonlinearity correction enabled: false
Boxcar width: 0
XAxis mode: Wavelengths
Number of Pixels in Spectrum: 2048
>>>>>Begin Spectral Data<<<<<
340.154	0.000
340.487	0.000
340.821	0.000
341.154	0.000
341.488	0.000
341.821	0.000
342.155	0.000
342.488	0.000
342.821	0.000
343.155	0.000
343.488	0.000
343.822	0.000
344.155	0.000
344.489	0.000
344.822	0.000
345.155	0.000
345.489	0.000
345.822	0.000
346.156	0.000
346.489	0.000
346.823	0.000
347.156	0.000
347.490	0.000
347.823	0.000
348.156	0.000
348.490	0.000
348.823	0.000
349.157	0.000
349.490	0.000
349.824	0.000
350.157	0.000
350.490	0.000
350.824	0.000
351.157	0.000
351.491	0.000
351.824	0.000
352.158	0.000
352.491	0.000
352.824	0.000
353.158	0.000
353.491	0.000
353.825	0.000
354.158	0.000
354.492	0.000
354.825	0.000
355.158	0.000
355.492	0.000
355.825	0.000
356.159	0.000
356.492	0.000
356.826	0.000
357.159	0.000
357.492	0.000
357.826	0.000
358.159	0.000
358.493	0.000
358.826	0.000
359.160	0.000
359.493	0.000
359.826	0.000
360.160	0.000
360.493	0.000
360.827	0.000
361.160	0.000
361.494	0.000
361.827	0.000
362.161	0.000
362.494	0.000
362.827	0.000
363.161	0.000
363.494	0.000
363.828	0.000
364.161	0.000
364.495	0.000
364.828	0.000
365.161	0.000
365.495	0.000
365.828	0.000
366.162	0.000
366.495	0.000
366.829	0.000
367.162	0.000
367.495	0.000
367.829	0.000
368.162	0.000
368.496	0.000
368.829	0.000
369.163	0.000
369.496	0.000
369.829	0.000
370.163	0.000
370.496	0.000
370.830	0.000
371.163	0.000
371.497	0.000
371.830	0.000
372.163	0.000
372.497	0.000
372.830	0.000
373.164	0.000
373.497	0.000
373.831	0.000
374.164	0.000
374.497	0.000
374.831	0.000
375.164	0.000
375.498	0.000
375.831	0.000
376.165	0.000
376.498	0.000
376.832	0.000
377.165	0.000
377.498	0.000
377.832	0.000
378.165	0.000
378.499	0.000
378.832	0.000
379.166	0.000
379.499	0.000
379.832	0.000
380.166	0.000
380.499	0.000
380.833	0.000
381.166	0.000
381.500	0.000
381.833	0.000
382.166	0.000
382.500	0.000
382.833	0.000
383.167	0.000
383.500	0.000
383.834	0.000
384.167	0.000
384.500	0.000
384.834	0.000
385.167	0.000
385.501	0.000
385.834	0.000
386.168	0.000
386.501	0.000
386.834	0.000
387.168	0.000
387.501	0.000
387.835	0.000
388.168	0.000
388.502	0.000
388.835	0.000
389.168	0.000
389.502	0.000
389.835	0.000
390.169	0.000
390.502	0.000
390.836	0.000
391.169	0.000
391.503	0.000
391.836	0.000
392.169	0.000
392.503	0.000
392.836	0.000
393.170	0.000
393.503	0.000
393.837	0.000
394.170	0.000
394.503	0.000
394.837	0.000
395.170	0.000
395.504	0.000
395.837	0.000
396.171	0.000
396.504	0.000
396.837	0.000
397.171	0.000
397.504	0.000
397.838	0.000
398.171	0.000
398.505	0.000
398.838	0.000
399.171	0.000
399.505	0.000
399.838	0.000
400.172	0.000
400.505	0.000
400.839	0.000
401.172	0.000
401.505	0.000
401.839	0.000
402.172	0.000
402.506	0.000
402.839	0.000
403.173	0.000
403.506	0.000
403.839	0.000
404.173	0.000
404.506	0.000
404.840	0.000
405.173	0.000
405.507	0.000
405.840	0.000
406.174	0.000
406.507	0.000
406.840	0.000
407.174	0.000
407.507	0.000
407.841	0.000
408.174	0.000
408.508	0.000
408.841	0.000
409.174	0.000
409.508	0.000
409.841	0.000
410.175	0.000
410.508	0.000
410.842	0.000
411.175	0.000
411.508	0.000
411.842	0.000
412.175	0.000
412.509	0.000
412.842	0.000
413.176	0.000
413.509	0.000
413.842	0.000
414.176	0.000
414.509	0.000
414.843	0.000
415.176	0.000
415.510	0.000
415.843	0.000
416.176	0.000
416.510	0.000
416.843	0.000
417.177	0.000
417.510	0.000
417.844	0.000
418.177	0.000
418.510	0.000
418.844	0.000
419.177	0.000
419.511	0.000
419.844	0.000
420.178	0.000
420.511	0.000
420.845	0.000
421.178	0.000
421.511	0.000
421.845	0.000
422.178	0.000
422.512	0.000
422.845	0.000
423.179	0.000
423.512	0.000
423.845	0.000
424.179	0.000
424.512	0.000
424.846	0.000
425.179	0.000
425.513	0.000
425.846	0.000
426.179	0.000
426.513	0.000
426.846	0.000
427.180	0.000
427.513	0.000
427.847	0.000
428.180	0.000
428.513	0.000
428.847	0.000
429.180	0.000
429.514	0.000
429.847	0.000
430.181	0.000
430.514	0.000
430.847	0.000
431.181	0.000
431.514	0.000
431.848	0.000
432.181	0.000
432.515	0.000
432.848	0.000
433.181	0.000
433.515	0.000
433.848	0.000
434.182	0.000
434.515	0.000
434.849	0.000
435.182	0.000
435.516	0.000
435.849	0.000
436.182	0.000
436.516	0.000
436.849	0.000
437.183	0.000
437.516	0.000
437.850	0.000
438.183	0.000
438.516	0.000
438.850	0.000
439.183	0.000
439.517	0.000
439.850	0.000
440.184	0.000
440.517	0.000
440.850	0.000
441.184	0.000
441.517	0.000
441.851	0.000
442.184	0.000
442.518	0.000
442.851	0.000
443.184	0.000
443.518	0.000
443.851	0.000
444.185	0.000
444.518	0.000
444.852	0.000
445.185	0.000
445.518	0.000
445.852	0.000
446.185	0.000
446.519	0.000
446.852	0.000
447.186	0.000
447.519	0.000
447.852	0.000
448.186	0.000
448.519	0.000
448.853	0.000
449.186	0.000
449.520	0.000
449.853	0.000
450.187	0.000
450.520	0.000
450.853	0.000
451.187	0.000
451.520	0.000
451.854	0.000
452.187	0.000
452.521	0.000
452.854	0.000
453.187	0.000
453.521	0.000
453.854	0.000
454.188	0.000
454.521	0.000
454.855	0.000
455.188	0.000
455.521	0.000
455.855	0.000
456.188	0.000
456.522	0.000
456.855	0.000
457.189	0.000
457.522	0.000
457.855	0.000
458.189	0.000
458.522	0.000
458.856	0.000
459.189	0.000
459.523	0.000
459.856	0.000
460.189	0.000
460.523	0.000
460.856	0.000
461.190	0.000
461.523	0.000
461.857	0.000
462.190	0.000
462.523	0.000
462.857	0.000
463.190	0.000
463.524	0.000
463.857	0.000
464.191	0.000
464.524	0.000
464.858	0.000
465.191	0.000
465.524	0.000
465.858	0.000
466.191	0.000
466.525	0.000
466.858	0.000
467.192	0.000
467.525	0.000
467.858	0.000
468.192	0.000
468.525	0.000
468.859	0.000
469.192	0.000
469.526	0.000
469.859	0.000
470.192	0.000
470.526	0.000
470.859	0.000
471.193	0.000
471.526	0.000
471.860	0.000
472.193	0.000
472.526	0.000
472.860	0.000
473.193	0.000
473.527	0.000
473.860	0.000
474.194	0.000
474.527	0.000
474.860	0.000
475.194	0.000
475.527	0.000
475.861	0.000
476.194	0.000
476.528	0.000
476.861	0.000
477.194	0.000
477.528	0.000
477.861	0.000
478.195	0.000
478.528	0.000
478.862	0.000
479.195	0.000
479.529	0.000
479.862	0.000
480.195	0.000
480.529	0.000
480.862	0.000
481.196	0.000
481.529	0.000
481.863	0.000
482.196	0.000
482.529	0.000
482.863	0.000
483.196	0.000
483.530	0.000
483.863	0.000
484.197	0.000
484.530	0.000
484.863	0.000
485.197	0.000
485.530	0.000
485.864	0.000
486.197	0.000
486.531	0.000
486.864	0.000
487.197	0.000
487.531	0.000
487.864	0.000
488.198	0.000
488.531	0.000
488.865	0.000
489.198	0.000
489.531	0.000
489.865	0.000
490.198	0.000
490.532	0.000
490.865	0.000
491.199	0.000
491.532	0.000
491.865	0.000
492.199	0.000
492.532	0.000
492.866	0.000
493.199	0.000
493.533	0.000
493.866	0.000
494.200	0.000
494.533	0.000
494.866	0.000
495.200	0.000
495.533	0.000
495.867	0.000
496.200	0.000
496.534	0.000
496.867	0.000
497.200	0.000
497.534	0.000
497.867	0.000
498.201	0.000
498.534	0.000
498.868	0.000
499.201	0.000
499.534	0.000
499.868	0.000
500.201	0.000
500.535	0.000
500.868	0.000
501.202	0.000
501.535	0.000
501.868	0.000
502.202	0.000
502.535	0.000
502.869	0.000
503.202	0.000
503.536	0.000
503.869	0.000
504.202	0.000
504.536	0.000
504.869	0.000
505.203	0.000
505.536	0.000
505.870	0.000
506.203	0.000
506.536	0.000
506.870	0.000
507.203	0.000
507.537	0.000
507.870	0.000
508.204	0.000
508.537	0.000
508.871	0.000
509.204	0.000
509.537	0.000
509.871	0.000
510.204	0.000
510.538	0.000
510.871	0.000
511.205	0.000
511.538	0.000
511.871	0.000
512.205	0.000
512.538	0.000
512.872	0.000
513.205	0.000
513.539	0.000
513.872	0.000
514.205	0.000
514.539	0.000
514.872	0.000
515.206	0.000
515.539	0.000
515.873	0.000
516.206	0.000
516.539	0.000
516.873	0.000
517.206	0.000
517.540	0.000
517.873	0.000
518.207	0.000
518.540	0.000
518.873	0.000
519.207	0.000
519.540	0.000
519.874	0.000
520.207	0.000
520.541	0.000
520.874	0.000
521.207	0.000
521.541	0.000
521.874	0.000
522.208	0.000
522.541	0.000
522.875	0.000
523.208	0.000
523.542	0.000
523.875	0.000
524.208	0.000
524.542	0.000
524.875	0.000
525.209	0.000
525.542	0.000
525.876	0.000
526.209	0.000
526.542	0.000
526.876	0.000
527.209	0.000
527.543	0.000
527.876	0.000
528.210	0.000
528.543	0.000
528.876	0.000
529.210	0.000
529.543	0.000
529.877	0.000
530.210	0.000
530.544	0.000
530.877	0.000
531.210	0.000
531.544	0.000
531.877	0.000
532.211	0.000
532.544	0.000
532.878	0.000
533.211	0.000
533.544	0.000
533.878	0.000
534.211	0.000
534.545	0.000
534.878	0.000
535.212	0.000
535.545	0.000
535.878	0.000
536.212	0.000
536.545	0.000
536.879	0.000
537.212	0.000
537.546	0.000
537.879	0.000
538.213	0.000
538.546	0.000
538.879	0.000
539.213	0.000
539.546	0.000
539.880	0.000
540.213	0.000
540.547	0.000
540.880	0.000
541.213	0.000
541.547	0.000
541.880	0.000
542.214	0.000
542.547	0.000
542.881	0.000
543.214	0.000
543.547	0.000
543.881	0.000
544.214	0.000
544.548	0.000
544.881	0.000
545.215	0.000
545.548	0.000
545.881	0.000
546.215	0.000
546.548	0.000
546.882	0.000
547.215	0.001
547.549	0.001
547.882	0.001
548.215	0.001
548.549	0.001
548.882	0.001
549.216	0.001
549.549	0.001
549.883	0.001
550.216	0.001
550.549	0.001
550.883	0.002
551.216	0.002
551.550	0.002
551.883	0.002
552.217	0.002
552.550	0.002
552.884	0.003
553.217	0.003
553.550	0.003
553.884	0.004
554.217	0.004
554.551	0.004
554.884	0.005
555.218	0.005
555.551	0.006
555.884	0.006
556.218	0.007
556.551	0.008
556.885	0.008
557.218	0.009
557.552	0.010
557.885	0.011
558.218	0.012
558.552	0.013
558.885	0.014
559.219	0.016
559.552	0.017
559.886	0.019
560.219	0.021
560.552	0.022
560.886	0.025
561.219	0.027
561.553	0.029
561.886	0.032
562.220	0.035
562.553	0.038
562.886	0.042
563.220	0.045
563.553	0.049
563.887	0.054
564.220	0.059
564.554	0.064
564.887	0.070
565.220	0.076
565.554	0.083
565.887	0.090
566.221	0.098
566.554	0.106
566.888	0.116
567.221	0.126
567.555	0.137
567.888	0.148
568.221	0.161
568.555	0.175
568.888	0.190
569.222	0.206
569.555	0.224
569.889	0.242
570.222	0.263
570.555	0.285
570.889	0.309
571.222	0.334
571.556	0.362
571.889	0.392
572.223	0.424
572.556	0.458
572.889	0.495
573.223	0.535
573.556	0.579
573.890	0.625
574.223	0.675
574.557	0.728
574.890	0.786
575.223	0.848
575.557	0.914
575.890	0.986
576.224	1.062
576.557	1.144
576.891	1.232
577.224	1.326
577.557	1.427
577.891	1.535
578.224	1.651
578.558	1.775
578.891	1.907
579.225	2.049
579.558	2.201
579.892	2.363
580.225	2.535
580.558	2.720
580.892	2.917
581.225	3.127
581.559	3.351
581.892	3.590
582.226	3.845
582.559	4.116
582.892	4.405
583.226	4.713
583.559	5.040
583.893	5.388
584.226	5.758
584.560	6.151
584.893	6.569
585.226	7.012
585.560	7.483
585.893	7.983
586.227	8.513
586.560	9.075
586.894	9.671
587.227	10.303
587.560	10.971
587.894	11.679
588.227	12.428
588.561	13.220
588.894	14.058
589.228	14.944
589.561	15.880
589.894	16.868
590.228	17.911
590.561	19.012
590.895	20.174
591.228	21.399
591.562	22.690
591.895	24.050
592.228	25.483
592.562	26.992
592.895	28.579
593.229	30.249
593.562	32.006
593.896	33.852
594.229	35.791
594.563	37.828
594.896	39.967
595.229	42.211
595.563	44.566
595.896	47.035
596.230	49.622
596.563	52.333
596.897	55.173
597.230	58.146
597.563	61.256
597.897	64.510
598.230	67.912
598.564	71.468
598.897	75.183
599.231	79.063
599.564	83.113
599.897	87.339
600.231	91.746
600.564	96.342
600.898	101.131
601.231	106.120
601.565	111.315
601.898	116.722
602.231	122.347
602.565	128.198
602.898	134.280
603.232	140.600
603.565	147.165
603.899	153.981
604.232	161.054
604.565	168.392
604.899	176.000
605.232	183.887
605.566	192.057
605.899	200.519
606.233	209.278
606.566	218.342
606.899	227.716
607.233	237.407
607.566	247.422
607.900	257.768
608.233	268.449
608.567	279.473
608.900	290.846
609.234	302.573
609.567	314.660
609.900	327.113
610.234	339.938
610.567	353.139
610.901	366.723
611.234	380.692
611.568	395.054
611.901	409.811
612.234	424.968
612.568	440.529
612.901	456.497
613.235	472.877
613.568	489.670
613.902	506.881
614.235	524.510
614.568	542.561
614.902	561.035
615.235	579.933
615.569	599.256
615.902	619.005
616.236	639.180
616.569	659.781
616.902	680.807
617.236	702.257
617.569	724.129
617.903	746.421
618.236	769.131
618.570	792.256
618.903	815.793
619.236	839.737
619.570	864.084
619.903	888.829
620.237	913.967
620.570	939.491
620.904	965.396
621.237	991.674
621.570	1018.319
621.904	1045.321
622.237	1072.673
622.571	1100.365
622.904	1128.389
623.238	1156.734
623.571	1185.389
623.905	1214.345
624.238	1243.589
624.571	1273.110
624.905	1302.896
625.238	1332.933
625.572	1363.210
625.905	1393.711
626.239	1424.423
626.572	1455.333
626.905	1486.425
627.239	1517.684
627.572	1549.096
627.906	1580.643
628.239	1612.312
628.573	1644.085
628.906	1675.946
629.239	1707.878
629.573	1739.866
629.906	1771.891
630.240	1803.937
630.573	1835.986
630.907	1868.022
631.240	1900.027
631.573	1931.985
631.907	1963.876
632.240	1995.686
632.574	2027.395
632.907	2058.988
633.241	2090.447
633.574	2121.755
633.907	2152.896
634.241	2183.854
634.574	2214.613
634.908	2245.155
635.241	2275.467
635.575	2305.533
635.908	2335.338
636.241	2364.868
636.575	2394.108
636.908	2423.046
637.242	2451.667
637.575	2479.960
637.909	2507.913
638.242	2535.513
638.576	2562.750
638.909	2589.614
639.242	2616.094
639.576	2642.182
639.909	2667.870
640.243	2693.148
640.576	2718.011
640.910	2742.451
641.243	2766.464
641.576	2790.043
641.910	2813.184
642.243	2835.884
642.577	2858.140
642.910	2879.949
643.244	2901.310
643.577	2922.222
643.910	2942.685
644.244	2962.700
644.577	2982.268
644.911	3001.391
645.244	3020.072
645.578	3038.314
645.911	3056.121
646.244	3073.499
646.578	3090.451
646.911	3106.985
647.245	3123.107
647.578	3138.824
647.912	3154.143
648.245	3169.074
648.578	3183.624
648.912	3197.803
649.245	3211.621
649.579	3225.087
649.912	3238.212
650.246	3251.007
650.579	3263.483
650.912	3275.651
651.246	3287.524
651.579	3299.112
651.913	3310.429
652.246	3321.486
652.580	3332.296
652.913	3342.872
653.247	3353.225
653.580	3363.369
653.913	3373.316
654.247	3383.078
654.580	3392.667
654.914	3402.097
655.247	3411.379
655.581	3420.525
655.914	3429.547
656.247	3438.455
656.581	3447.262
656.914	3455.977
657.248	3464.611
657.581	3473.175
657.915	3481.678
658.248	3490.128
658.581	3498.535
658.915	3506.907
659.248	3515.250
659.582	3523.574
659.915	3531.883
660.249	3540.184
660.582	3548.482
660.915	3556.783
661.249	3565.089
661.582	3573.404
661.916	3581.732
662.249	3590.075
662.583	3598.433
662.916	3606.807
663.249	3615.199
663.583	3623.606
663.916	3632.029
664.250	3640.464
664.583	3648.910
664.917	3657.362
665.250	3665.818
665.583	3674.272
665.917	3682.720
666.250	3691.155
666.584	3699.570
666.917	3707.959
667.251	3716.315
667.584	3724.628
667.918	3732.890
668.251	3741.092
668.584	3749.224
668.918	3757.275
669.251	3765.235
669.585	3773.093
669.918	3780.837
670.252	3788.455
670.585	3795.935
670.918	3803.263
671.252	3810.429
671.585	3817.417
671.919	3824.215
672.252	3830.809
672.586	3837.186
672.919	3843.331
673.252	3849.231
673.586	3854.872
673.919	3860.239
674.253	3865.320
674.586	3870.099
674.920	3874.563
675.253	3878.698
675.586	3882.491
675.920	3885.928
676.253	3888.996
676.587	3891.682
676.920	3893.973
677.254	3895.856
677.587	3897.321
677.920	3898.354
678.254	3898.945
678.587	3899.082
678.921	3898.755
679.254	3897.955
679.588	3896.671
679.921	3894.894
680.254	3892.616
680.588	3889.829
680.921	3886.525
681.255	3882.697
681.588	3878.340
681.922	3873.448
682.255	3868.015
682.589	3862.037
682.922	3855.510
683.255	3848.432
683.589	3840.800
683.922	3832.612
684.256	3823.867
684.589	3814.565
684.923	3804.706
685.256	3794.291
685.589	3783.322
685.923	3771.800
686.256	3759.730
686.590	3747.114
686.923	3733.958
687.257	3720.265
687.590	3706.042
687.923	3691.296
688.257	3676.032
688.590	3660.259
688.924	3643.985
689.257	3627.219
689.591	3609.970
689.924	3592.248
690.257	3574.063
690.591	3555.427
690.924	3536.351
691.258	3516.847
691.591	3496.928
691.925	3476.607
692.258	3455.897
692.591	3434.812
692.925	3413.366
693.258	3391.575
693.592	3369.452
693.925	3347.014
694.259	3324.275
694.592	3301.253
694.925	3277.962
695.259	3254.420
695.592	3230.643
695.926	3206.648
696.259	3182.452
696.593	3158.072
696.926	3133.526
697.260	3108.830
697.593	3084.003
697.926	3059.061
698.260	3034.023
698.593	3008.905
698.927	2983.726
699.260	2958.503
699.594	2933.253
699.927	2907.994
700.260	2882.743
700.594	2857.517
700.927	2832.333
701.261	2807.208
701.594	2782.158
701.928	2757.201
702.261	2732.352
702.594	2707.628
702.928	2683.045
703.261	2658.617
703.595	2634.361
703.928	2610.291
704.262	2586.422
704.595	2562.768
704.928	2539.344
705.262	2516.163
705.595	2493.239
705.929	2470.585
706.262	2448.214
706.596	2426.137
706.929	2404.368
707.262	2382.917
707.596	2361.795
707.929	2341.014
708.263	2320.584
708.596	2300.515
708.930	2280.817
709.263	2261.498
709.596	2242.567
709.930	2224.034
710.263	2205.905
710.597	2188.188
710.930	2170.891
711.264	2154.020
711.597	2137.581
711.931	2121.580
712.264	2106.022
712.597	2090.914
712.931	2076.258
713.264	2062.060
713.598	2048.323
713.931	2035.051
714.265	2022.246
714.598	2009.912
714.931	1998.050
715.265	1986.662
715.598	1975.750
715.932	1965.315
716.265	1955.358
716.599	1945.878
716.932	1936.877
717.265	1928.353
717.599	1920.306
717.932	1912.736
718.266	1905.640
718.599	1899.017
718.933	1892.866
719.266	1887.184
719.599	1881.968
719.933	1877.215
720.266	1872.924
720.600	1869.089
720.933	1865.708
721.267	1862.777
721.600	1860.292
721.933	1858.247
722.267	1856.640
722.600	1855.464
722.934	1854.715
723.267	1854.387
723.601	1854.476
723.934	1854.975
724.267	1855.879
724.601	1857.181
724.934	1858.876
725.268	1860.957
725.601	1863.418
725.935	1866.251
726.268	1869.451
726.602	1873.010
726.935	1876.921
727.268	1881.178
727.602	1885.772
727.935	1890.696
728.269	1895.944
728.602	1901.506
728.936	1907.377
729.269	1913.547
729.602	1920.009
729.936	1926.755
730.269	1933.777
730.603	1941.067
730.936	1948.617
731.270	1956.418
731.603	1964.464
731.936	1972.744
732.270	1981.252
732.603	1989.978
732.937	1998.915
733.270	2008.054
733.604	2017.386
733.937	2026.904
734.270	2036.599
734.604	2046.462
734.937	2056.485
735.271	2066.660
735.604	2076.978
735.938	2087.432
736.271	2098.012
736.604	2108.711
736.938	2119.519
737.271	2130.430
737.605	2141.434
737.938	2152.523
738.272	2163.690
738.605	2174.926
738.938	2186.223
739.272	2197.572
739.605	2208.967
739.939	2220.399
740.272	2231.861
740.606	2243.344
740.939	2254.840
741.273	2266.343
741.606	2277.844
741.939	2289.337
742.273	2300.813
742.606	2312.265
742.940	2323.686
743.273	2335.068
743.607	2346.405
743.940	2357.690
744.273	2368.915
744.607	2380.074
744.940	2391.160
745.274	2402.166
745.607	2413.086
745.941	2423.913
746.274	2434.641
746.607	2445.263
746.941	2455.774
747.274	2466.168
747.608	2476.438
747.941	2486.578
748.275	2496.583
748.608	2506.448
748.941	2516.166
749.275	2525.733
749.608	2535.142
749.942	2544.390
750.275	2553.471
750.609	2562.380
750.942	2571.112
751.275	2579.663
751.609	2588.028
751.942	2596.202
752.276	2604.182
752.609	2611.964
752.943	2619.542
753.276	2626.914
753.609	2634.076
753.943	2641.024
754.276	2647.754
754.610	2654.263
754.943	2660.548
755.277	2666.606
755.610	2672.434
755.944	2678.029
756.277	2683.388
756.610	2688.508
756.944	2693.388
757.277	2698.025
757.611	2702.417
757.944	2706.561
758.278	2710.457
758.611	2714.101
758.944	2717.492
759.278	2720.630
759.611	2723.512
759.945	2726.137
760.278	2728.504
760.612	2730.612
760.945	2732.461
761.278	2734.049
761.612	2735.376
761.945	2736.441
762.279	2737.244
762.612	2737.784
762.946	2738.063
763.279	2738.078
763.612	2737.832
763.946	2737.323
764.279	2736.552
764.613	2735.520
764.946	2734.227
765.280	2732.674
765.613	2730.862
765.946	2728.791
766.280	2726.463
766.613	2723.878
766.947	2721.038
767.280	2717.945
767.614	2714.598
767.947	2711.001
768.280	2707.155
768.614	2703.060
768.947	2698.720
769.281	2694.136
769.614	2689.309
769.948	2684.242
770.281	2678.938
770.615	2673.398
770.948	2667.624
771.281	2661.619
771.615	2655.385
771.948	2648.925
772.282	2642.241
772.615	2635.336
772.949	2628.213
773.282	2620.874
773.615	2613.322
773.949	2605.561
774.282	2597.592
774.616	2589.419
774.949	2581.046
775.283	2572.474
775.616	2563.707
775.949	2554.749
776.283	2545.603
776.616	2536.271
776.950	2526.757
777.283	2517.064
777.617	2507.197
777.950	2497.157
778.283	2486.949
778.617	2476.576
778.950	2466.041
779.284	2455.347
779.617	2444.500
779.951	2433.500
780.284	2422.354
780.617	2411.063
780.951	2399.631
781.284	2388.062
781.618	2376.360
781.951	2364.528
782.285	2352.569
782.618	2340.488
782.951	2328.287
783.285	2315.970
783.618	2303.541
783.952	2291.003
784.285	2278.360
784.619	2265.615
784.952	2252.773
785.286	2239.835
785.619	2226.806
785.952	2213.689
786.286	2200.488
786.619	2187.206
786.953	2173.847
787.286	2160.413
787.620	2146.909
787.953	2133.336
788.286	2119.700
788.620	2106.002
788.953	2092.247
789.287	2078.437
789.620	2064.576
789.954	2050.667
790.287	2036.712
790.620	2022.716
790.954	2008.680
791.287	1994.608
791.621	1980.503
791.954	1966.368
792.288	1952.205
792.621	1938.019
792.954	1923.810
793.288	1909.583
793.621	1895.339
793.955	1881.082
794.288	1866.814
794.622	1852.538
794.955	1838.256
795.288	1823.971
795.622	1809.685
795.955	1795.401
796.289	1781.121
796.622	1766.847
796.956	1752.583
797.289	1738.329
797.623	1724.088
797.956	1709.863
798.289	1695.655
798.623	1681.467
798.956	1667.300
799.290	1653.157
799.623	1639.040
799.957	1624.950
800.290	1610.889
800.623	1596.859
800.957	1582.862
801.290	1568.899
801.624	1554.973
801.957	1541.085
802.291	1527.236
802.624	1513.429
802.957	1499.663
803.291	1485.942
803.624	1472.267
803.958	1458.638
804.291	1445.058
804.625	1431.527
804.958	1418.046
805.291	1404.618
805.625	1391.244
805.958	1377.923
806.292	1364.658
806.625	1351.450
806.959	1338.300
807.292	1325.208
807.625	1312.176
807.959	1299.204
808.292	1286.294
808.626	1273.447
808.959	1260.663
809.293	1247.943
809.626	1235.287
809.959	1222.698
810.293	1210.175
810.626	1197.719
810.960	1185.330
811.293	1173.011
811.627	1160.760
811.960	1148.578
812.294	1136.467
812.627	1124.427
812.960	1112.457
813.294	1100.560
813.627	1088.734
813.961	1076.981
814.294	1065.301
814.628	1053.694
814.961	1042.161
815.294	1030.702
815.628	1019.317
815.961	1008.008
816.295	996.772
816.628	985.613
816.962	974.528
817.295	963.520
817.628	952.587
817.962	941.730
818.295	930.950
818.629	920.246
818.962	909.618
819.296	899.067
819.629	888.593
819.962	878.195
820.296	867.875
820.629	857.632
820.963	847.465
821.296	837.376
821.630	827.364
821.963	817.429
822.296	807.571
822.630	797.790
822.963	788.086
823.297	778.459
823.630	768.909
823.964	759.436
824.297	750.040
824.630	740.721
824.964	731.478
825.297	722.313
825.631	713.223
825.964	704.210
826.298	695.273
826.631	686.413
826.965	677.628
827.298	668.919
827.631	660.286
827.965	651.728
828.298	643.246
828.632	634.839
828.965	626.507
829.299	618.250
829.632	610.068
829.965	601.960
830.299	593.926
830.632	585.966
830.966	578.080
831.299	570.267
831.633	562.528
831.966	554.862
832.299	547.269
832.633	539.749
832.966	532.301
833.300	524.925
833.633	517.621
833.967	510.388
834.300	503.227
834.633	496.137
834.967	489.118
835.300	482.170
835.634	475.291
835.967	468.483
836.301	461.744
836.634	455.074
836.967	448.474
837.301	441.942
837.634	435.479
837.968	429.084
838.301	422.757
838.635	416.497
838.968	410.304
839.301	404.179
839.635	398.120
839.968	392.127
840.302	386.200
840.635	380.338
840.969	374.542
841.302	368.810
841.636	363.143
841.969	357.540
842.302	352.001
842.636	346.526
842.969	341.113
843.303	335.764
843.636	330.476
843.970	325.251
844.303	320.087
844.636	314.985
844.970	309.943
845.303	304.962
845.637	300.041
845.970	295.180
846.304	290.378
846.637	285.635
846.970	280.951
847.304	276.325
847.637	271.757
847.971	267.246
848.304	262.792
848.638	258.395
848.971	254.054
849.304	249.769
849.638	245.539
849.971	241.364
850.305	237.244
850.638	233.179
850.972	229.166
851.305	225.208
851.638	221.302
851.972	217.449
852.305	213.648
852.639	209.898
852.972	206.200
853.306	202.553
853.639	198.956
853.972	195.410
854.306	191.913
854.639	188.465
854.973	185.065
855.306	181.715
855.640	178.412
855.973	175.156
856.307	171.948
856.640	168.786
856.973	165.670
857.307	162.601
857.640	159.576
857.974	156.596
858.307	153.661
858.641	150.770
858.974	147.923
859.307	145.118
859.641	142.357
859.974	139.637
860.308	136.960
860.641	134.324
860.975	131.729
861.308	129.175
861.641	126.661
861.975	124.187
862.308	121.752
862.642	119.355
862.975	116.998
863.309	114.678
863.642	112.396
863.975	110.151
864.309	107.943
864.642	105.771
864.976	103.636
865.309	101.535
865.643	99.470
865.976	97.440
866.309	95.443
866.643	93.481
866.976	91.552
867.310	89.656
867.643	87.793
867.977	85.962
868.310	84.163
868.643	82.395
868.977	80.658
869.310	78.952
869.644	77.276
869.977	75.630
870.311	74.013
870.644	72.425
870.978	70.866
871.311	69.335
871.644	67.832
871.978	66.357
872.311	64.909
872.645	63.487
872.978	62.092
873.312	60.723
873.645	59.379
873.978	58.061
874.312	56.767
874.645	55.498
874.979	54.254
875.312	53.033
875.646	51.835
875.979	50.661
876.312	49.510
876.646	48.381
876.979	47.274
877.313	46.188
877.646	45.125
877.980	44.082
878.313	43.060
878.646	42.058
878.980	41.077
879.313	40.115
879.647	39.173
879.980	38.250
880.314	37.346
880.647	36.460
880.980	35.593
881.314	34.743
881.647	33.912
881.981	33.097
882.314	32.300
882.648	31.519
882.981	30.755
883.314	30.007
883.648	29.274
883.981	28.558
884.315	27.857
884.648	27.171
884.982	26.499
885.315	25.843
885.649	25.200
885.982	24.572
886.315	23.957
886.649	23.356
886.982	22.769
887.316	22.194
887.649	21.632
887.983	21.083
888.316	20.546
888.649	20.021
888.983	19.508
889.316	19.007
889.650	18.517
889.983	18.038
890.317	17.570
890.650	17.114
890.983	16.667
891.317	16.231
891.650	15.805
891.984	15.390
892.317	14.983
892.651	14.587
892.984	14.200
893.317	13.822
893.651	13.453
893.984	13.093
894.318	12.741
894.651	12.398
894.985	12.063
895.318	11.737
895.651	11.418
895.985	11.107
896.318	10.804
896.652	10.508
896.985	10.219
897.319	9.938
897.652	9.663
897.985	9.396
898.319	9.135
898.652	8.881
898.986	8.633
899.319	8.391
899.653	8.155
899.986	7.926
900.320	7.702
900.653	7.484
900.986	7.272
901.320	7.065
901.653	6.863
901.987	6.667
902.320	6.475
902.654	6.289
902.987	6.108
903.320	5.931
903.654	5.759
903.987	5.592
904.321	5.429
904.654	5.270
904.988	5.115
905.321	4.965
905.654	4.819
905.988	4.677
906.321	4.538
906.655	4.403
906.988	4.272
907.322	4.145
907.655	4.021
907.988	3.900
908.322	3.783
908.655	3.669
908.989	3.558
909.322	3.450
909.656	3.345
909.989	3.243
910.322	3.144
910.656	3.048
910.989	2.955
911.323	2.864
911.656	2.775
911.990	2.690
912.323	2.606
912.656	2.525
912.990	2.447
913.323	2.370
913.657	2.296
913.990	2.224
914.324	2.154
914.657	2.086
914.991	2.020
915.324	1.956
915.657	1.894
915.991	1.834
916.324	1.775
916.658	1.718
916.991	1.663
917.325	1.610
917.658	1.558
917.991	1.508
918.325	1.459
918.658	1.412
918.992	1.366
919.325	1.321
919.659	1.278
919.992	1.236
920.325	1.195
920.659	1.156
920.992	1.118
921.326	1.081
921.659	1.045
921.993	1.010
922.326	0.977
922.659	0.944
922.993	0.913
923.326	0.882
923.660	0.852
923.993	0.824
924.327	0.796
924.660	0.769
924.993	0.743
925.327	0.718
925.660	0.693
925.994	0.670
926.327	0.647
926.661	0.624
926.994	0.603
927.327	0.582
927.661	0.562
927.994	0.543
928.328	0.524
928.661	0.506
928.995	0.488
929.328	0.471
929.662	0.455
929.995	0.439
930.328	0.423
930.662	0.408
930.995	0.394
931.329	0.380
931.662	0.367
931.996	0.353
932.329	0.341
932.662	0.329
932.996	0.317
933.329	0.306
933.663	0.295
933.996	0.284
934.330	0.274
934.663	0.264
934.996	0.254
935.330	0.245
935.663	0.236
935.997	0.228
936.330	0.219
936.664	0.211
936.997	0.204
937.330	0.196
937.664	0.189
937.997	0.182
938.331	0.175
938.664	0.169
938.998	0.162
939.331	0.156
939.664	0.151
939.998	0.145
940.331	0.140
940.665	0.134
940.998	0.129
941.332	0.124
941.665	0.120
941.998	0.115
942.332	0.111
942.665	0.107
942.999	0.103
943.332	0.099
943.666	0.095
943.999	0.091
944.333	0.088
944.666	0.084
944.999	0.081
945.333	0.078
945.666	0.075
946.000	0.072
946.333	0.069
946.667	0.067
947.000	0.064
947.333	0.061
947.667	0.059
948.000	0.057
948.334	0.055
948.667	0.052
949.001	0.050
949.334	0.048
949.667	0.046
950.001	0.045
950.334	0.043
950.668	0.041
951.001	0.039
951.335	0.038
951.668	0.036
952.001	0.035
952.335	0.034
952.668	0.032
953.002	0.031
953.335	0.030
953.669	0.028
954.002	0.027
954.335	0.026
954.669	0.025
955.002	0.024
955.336	0.023
955.669	0.022
956.003	0.021
956.336	0.020
956.669	0.020
957.003	0.019
957.336	0.018
957.670	0.017
958.003	0.016
958.337	0.016
958.670	0.015
959.004	0.015
959.337	0.014
959.670	0.013
960.004	0.013
960.337	0.012
960.671	0.012
961.004	0.011
961.338	0.011
961.671	0.010
962.004	0.010
962.338	0.009
962.671	0.009
963.005	0.009
963.338	0.008
963.672	0.008
964.005	0.008
964.338	0.007
964.672	0.007
965.005	0.007
965.339	0.006
965.672	0.006
966.006	0.006
966.339	0.006
966.672	0.005
967.006	0.005
967.339	0.005
967.673	0.005
968.006	0.004
968.340	0.004
968.673	0.004
969.006	0.004
969.340	0.004
969.673	0.004
970.007	0.003
970.340	0.003
970.674	0.003
971.007	0.003
971.340	0.003
971.674	0.003
972.007	0.003
972.341	0.002
972.674	0.002
973.008	0.002
973.341	0.002
973.675	0.002
974.008	0.002
974.341	0.002
974.675	0.002
975.008	0.002
975.342	0.002
975.675	0.002
976.009	0.001
976.342	0.001
976.675	0.001
977.009	0.001
977.342	0.001
977.676	0.001
978.009	0.001
978.343	0.001
978.676	0.001
979.009	0.001
979.343	0.001
979.676	0.001
980.010	0.001
980.343	0.001
980.677	0.001
981.010	0.001
981.343	0.001
981.677	0.001
982.010	0.001
982.344	0.001
982.677	0.001
983.011	0.001
983.344	0.001
983.677	0.000
984.011	0.000
984.344	0.000
984.678	0.000
985.011	0.000
985.345	0.000
985.678	0.000
986.011	0.000
986.345	0.000
986.678	0.000
987.012	0.000
987.345	0.000
987.679	0.000
988.012	0.000
988.346	0.000
988.679	0.000
989.012	0.000
989.346	0.000
989.679	0.000
990.013	0.000
990.346	0.000
990.680	0.000
991.013	0.000
991.346	0.000
991.680	0.000
992.013	0.000
992.347	0.000
992.680	0.000
993.014	0.000
993.347	0.000
993.680	0.000
994.014	0.000
994.347	0.000
994.681	0.000
995.014	0.000
995.348	0.000
995.681	0.000
996.014	0.000
996.348	0.000
996.681	0.000
997.015	0.000
997.348	0.000
997.682	0.000
998.015	0.000
998.348	0.000
998.682	0.000
999.015	0.000
999.349	0.000
999.682	0.000
1000.016	0.000
1000.349	0.000
1000.682	0.000
1001.016	0.000
1001.349	0.000
1001.683	0.000
1002.016	0.000
1002.350	0.000
1002.683	0.000
1003.017	0.000
1003.350	0.000
1003.683	0.000
1004.017	0.000
1004.350	0.000
1004.684	0.000
1005.017	0.000
1005.351	0.000
1005.684	0.000
1006.017	0.000
1006.351	0.000
1006.684	0.000
1007.018	0.000
1007.351	0.000
1007.685	0.000
1008.018	0.000
1008.351	0.000
1008.685	0.000
1009.018	0.000
1009.352	0.000
1009.685	0.000
1010.019	0.000
1010.352	0.000
1010.685	0.000
1011.019	0.000
1011.352	0.000
1011.686	0.000
1012.019	0.000
1012.353	0.000
1012.686	0.000
1013.019	0.000
1013.353	0.000
1013.686	0.000
1014.020	0.000
1014.353	0.000
1014.687	0.000
1015.020	0.000
1015.353	0.000
1015.687	0.000
1016.020	0.000
1016.354	0.000
1016.687	0.000
1017.021	0.000
1017.354	0.000
1017.688	0.000
1018.021	0.000
1018.354	0.000
1018.688	0.000
1019.021	0.000
1019.355	0.000
1019.688	0.000
1020.022	0.000
1020.355	0.000
1020.688	0.000
1021.022	0.000
1021.355	0.000
1021.689	0.000
1022.022	0.000
1022.356	0.000
1022.689	0.000
