Data from repetition_2.txt_16-47-09-365.txt Node
Date: Sun Jun 13 23:27:09 CET 2021
User: fcossio
Spectrometer: FLMS15016
Trigger mode: 0
Integration Time (sec): 3.000000E-1Scans to average: 1
Electric dark correction enabled: true
Nonlinearity correction enabled: false
Boxcar width: 0
XAxis mode: Wavelengths
Number of Pixels in Spectrum: 2048
>>>>>Begin Spectral Data<<<<<
340.154	0.000
340.487	0.000
340.821	0.000
341.154	0.000
341.488	0.000
341.821	0.000
342.155	0.000
342.488	0.000
342.821	0.000
343.155	0.000
343.488	0.000
343.822	0.000
344.155	0.000
344.489	0.000
344.822	0.000
345.155	0.000
345.489	0.000
345.822	0.000
346.156	0.000
346.489	0.000
346.823	0.000
347.156	0.000
347.490	0.000
347.823	0.000
348.156	0.000
348.490	0.000
348.823	0.000
349.157	0.000
349.490	0.000
349.824	0.000
350.157	0.000
350.490	0.000
350.824	0.000
351.157	0.000
351.491	0.000
351.824	0.000
352.158	0.000
352.491	0.000
352.824	0.000
353.158	0.000
353.491	0.000
353.825	0.000
354.158	0.000
354.492	0.000
354.825	0.000
355.158	0.000
355.492	0.000
355.825	0.000
356.159	0.000
356.492	0.000
356.826	0.000
357.159	0.000
357.492	0.000
357.826	0.000
358.159	0.000
358.493	0.000
358.826	0.000
359.160	0.000
359.493	0.000
359.826	0.000
360.160	0.000
360.493	0.000
360.827	0.000
361.160	0.000
361.494	0.000
361.827	0.000
362.161	0.000
362.494	0.000
362.827	0.000
363.161	0.000
363.494	0.000
363.828	0.000
364.161	0.000
364.495	0.000
364.828	0.001
365.161	0.001
365.495	0.001
365.828	0.001
366.162	0.001
366.495	0.001
366.829	0.001
367.162	0.001
367.495	0.001
367.829	0.001
368.162	0.001
368.496	0.001
368.829	0.001
369.163	0.001
369.496	0.001
369.829	0.001
370.163	0.001
370.496	0.001
370.830	0.001
371.163	0.001
371.497	0.001
371.830	0.001
372.163	0.001
372.497	0.002
372.830	0.002
373.164	0.002
373.497	0.002
373.831	0.002
374.164	0.002
374.497	0.002
374.831	0.002
375.164	0.002
375.498	0.002
375.831	0.002
376.165	0.003
376.498	0.003
376.832	0.003
377.165	0.003
377.498	0.003
377.832	0.003
378.165	0.003
378.499	0.003
378.832	0.004
379.166	0.004
379.499	0.004
379.832	0.004
380.166	0.004
380.499	0.005
380.833	0.005
381.166	0.005
381.500	0.005
381.833	0.005
382.166	0.006
382.500	0.006
382.833	0.006
383.167	0.006
383.500	0.007
383.834	0.007
384.167	0.007
384.500	0.008
384.834	0.008
385.167	0.008
385.501	0.009
385.834	0.009
386.168	0.010
386.501	0.010
386.834	0.010
387.168	0.011
387.501	0.011
387.835	0.012
388.168	0.012
388.502	0.013
388.835	0.013
389.168	0.014
389.502	0.015
389.835	0.015
390.169	0.016
390.502	0.017
390.836	0.017
391.169	0.018
391.503	0.019
391.836	0.020
392.169	0.020
392.503	0.021
392.836	0.022
393.170	0.023
393.503	0.024
393.837	0.025
394.170	0.026
394.503	0.027
394.837	0.028
395.170	0.030
395.504	0.031
395.837	0.032
396.171	0.033
396.504	0.035
396.837	0.036
397.171	0.038
397.504	0.039
397.838	0.041
398.171	0.043
398.505	0.044
398.838	0.046
399.171	0.048
399.505	0.050
399.838	0.052
400.172	0.054
400.505	0.056
400.839	0.059
401.172	0.061
401.505	0.064
401.839	0.066
402.172	0.069
402.506	0.072
402.839	0.074
403.173	0.077
403.506	0.080
403.839	0.084
404.173	0.087
404.506	0.090
404.840	0.094
405.173	0.098
405.507	0.102
405.840	0.106
406.174	0.110
406.507	0.114
406.840	0.118
407.174	0.123
407.507	0.128
407.841	0.133
408.174	0.138
408.508	0.143
408.841	0.149
409.174	0.154
409.508	0.160
409.841	0.166
410.175	0.173
410.508	0.179
410.842	0.186
411.175	0.193
411.508	0.201
411.842	0.208
412.175	0.216
412.509	0.224
412.842	0.233
413.176	0.241
413.509	0.250
413.842	0.260
414.176	0.269
414.509	0.279
414.843	0.290
415.176	0.300
415.510	0.311
415.843	0.323
416.176	0.335
416.510	0.347
416.843	0.360
417.177	0.373
417.510	0.386
417.844	0.401
418.177	0.415
418.510	0.430
418.844	0.446
419.177	0.462
419.511	0.478
419.844	0.495
420.178	0.513
420.511	0.531
420.845	0.550
421.178	0.570
421.511	0.590
421.845	0.611
422.178	0.632
422.512	0.655
422.845	0.678
423.179	0.701
423.512	0.726
423.845	0.751
424.179	0.777
424.512	0.804
424.846	0.832
425.179	0.861
425.513	0.891
425.846	0.921
426.179	0.953
426.513	0.985
426.846	1.019
427.180	1.054
427.513	1.090
427.847	1.126
428.180	1.165
428.513	1.204
428.847	1.244
429.180	1.286
429.514	1.329
429.847	1.374
430.181	1.419
430.514	1.467
430.847	1.515
431.181	1.565
431.514	1.617
431.848	1.670
432.181	1.725
432.515	1.782
432.848	1.840
433.181	1.900
433.515	1.962
433.848	2.025
434.182	2.091
434.515	2.158
434.849	2.228
435.182	2.299
435.516	2.373
435.849	2.449
436.182	2.527
436.516	2.607
436.849	2.690
437.183	2.775
437.516	2.863
437.850	2.953
438.183	3.046
438.516	3.141
438.850	3.239
439.183	3.340
439.517	3.444
439.850	3.550
440.184	3.660
440.517	3.773
440.850	3.889
441.184	4.008
441.517	4.131
441.851	4.257
442.184	4.386
442.518	4.519
442.851	4.656
443.184	4.797
443.518	4.941
443.851	5.090
444.185	5.242
444.518	5.399
444.852	5.559
445.185	5.724
445.518	5.894
445.852	6.068
446.185	6.247
446.519	6.430
446.852	6.619
447.186	6.812
447.519	7.011
447.852	7.214
448.186	7.423
448.519	7.638
448.853	7.858
449.186	8.084
449.520	8.315
449.853	8.553
450.187	8.797
450.520	9.047
450.853	9.303
451.187	9.566
451.520	9.835
451.854	10.112
452.187	10.395
452.521	10.685
452.854	10.983
453.187	11.288
453.521	11.600
453.854	11.921
454.188	12.249
454.521	12.585
454.855	12.930
455.188	13.282
455.521	13.644
455.855	14.014
456.188	14.393
456.522	14.781
456.855	15.178
457.189	15.585
457.522	16.002
457.855	16.428
458.189	16.865
458.522	17.311
458.856	17.768
459.189	18.236
459.523	18.715
459.856	19.204
460.189	19.705
460.523	20.218
460.856	20.742
461.190	21.278
461.523	21.826
461.857	22.387
462.190	22.960
462.523	23.546
462.857	24.145
463.190	24.757
463.524	25.383
463.857	26.023
464.191	26.677
464.524	27.345
464.858	28.027
465.191	28.725
465.524	29.437
465.858	30.165
466.191	30.908
466.525	31.667
466.858	32.442
467.192	33.234
467.525	34.042
467.858	34.867
468.192	35.710
468.525	36.570
468.859	37.447
469.192	38.343
469.526	39.257
469.859	40.190
470.192	41.141
470.526	42.112
470.859	43.103
471.193	44.113
471.526	45.144
471.860	46.194
472.193	47.266
472.526	48.359
472.860	49.473
473.193	50.609
473.527	51.767
473.860	52.947
474.194	54.150
474.527	55.376
474.860	56.625
475.194	57.898
475.527	59.195
475.861	60.516
476.194	61.862
476.528	63.233
476.861	64.629
477.194	66.051
477.528	67.499
477.861	68.973
478.195	70.474
478.528	72.001
478.862	73.557
479.195	75.140
479.529	76.751
479.862	78.390
480.195	80.058
480.529	81.756
480.862	83.482
481.196	85.239
481.529	87.026
481.863	88.843
482.196	90.691
482.529	92.570
482.863	94.481
483.196	96.424
483.530	98.399
483.863	100.406
484.197	102.447
484.530	104.521
484.863	106.628
485.197	108.770
485.530	110.946
485.864	113.156
486.197	115.402
486.531	117.683
486.864	119.999
487.197	122.352
487.531	124.741
487.864	127.166
488.198	129.629
488.531	132.129
488.865	134.667
489.198	137.243
489.531	139.857
489.865	142.510
490.198	145.201
490.532	147.932
490.865	150.703
491.199	153.513
491.532	156.364
491.865	159.255
492.199	162.187
492.532	165.160
492.866	168.175
493.199	171.231
493.533	174.329
493.866	177.469
494.200	180.651
494.533	183.877
494.866	187.145
495.200	190.456
495.533	193.811
495.867	197.210
496.200	200.652
496.534	204.139
496.867	207.670
497.200	211.245
497.534	214.866
497.867	218.531
498.201	222.241
498.534	225.997
498.868	229.799
499.201	233.646
499.534	237.538
499.868	241.477
500.201	245.462
500.535	249.494
500.868	253.572
501.202	257.696
501.535	261.867
501.868	266.084
502.202	270.349
502.535	274.660
502.869	279.019
503.202	283.424
503.536	287.877
503.869	292.377
504.202	296.924
504.536	301.518
504.869	306.159
505.203	310.848
505.536	315.583
505.870	320.366
506.203	325.196
506.536	330.074
506.870	334.998
507.203	339.969
507.537	344.987
507.870	350.052
508.204	355.164
508.537	360.322
508.871	365.527
509.204	370.778
509.537	376.075
509.871	381.419
510.204	386.808
510.538	392.243
510.871	397.723
511.205	403.249
511.538	408.820
511.871	414.435
512.205	420.095
512.538	425.800
512.872	431.548
513.205	437.340
513.539	443.175
513.872	449.054
514.205	454.975
514.539	460.939
514.872	466.945
515.206	472.992
515.539	479.081
515.873	485.211
516.206	491.381
516.539	497.592
516.873	503.842
517.206	510.131
517.540	516.459
517.873	522.825
518.207	529.229
518.540	535.671
518.873	542.149
519.207	548.664
519.540	555.214
519.874	561.799
520.207	568.420
520.541	575.074
520.874	581.761
521.207	588.482
521.541	595.235
521.874	602.019
522.208	608.835
522.541	615.681
522.875	622.557
523.208	629.462
523.542	636.395
523.875	643.356
524.208	650.345
524.542	657.359
524.875	664.400
525.209	671.465
525.542	678.555
525.876	685.668
526.209	692.804
526.542	699.962
526.876	707.141
527.209	714.341
527.543	721.561
527.876	728.800
528.210	736.057
528.543	743.333
528.876	750.627
529.210	757.950
529.543	765.345
529.877	772.995
530.210	781.566
530.544	793.245
530.877	814.442
531.210	861.876
531.544	974.139
531.877	1229.361
532.211	1764.276
532.544	2780.460
532.878	4514.612
533.211	7153.157
533.544	10698.627
533.878	14842.093
534.211	18931.446
534.545	22106.577
534.878	23585.276
535.212	22975.230
535.545	20443.196
535.878	16642.197
536.212	12439.932
536.545	8601.941
536.879	5584.988
537.212	3504.188
537.546	2232.096
537.879	1539.187
538.213	1202.712
538.546	1058.181
538.879	1005.059
539.213	990.695
539.546	991.028
539.880	996.359
540.213	1003.216
540.547	1010.489
540.880	1017.859
541.213	1025.244
541.547	1032.624
541.880	1039.996
542.214	1047.359
542.547	1054.711
542.881	1062.053
543.214	1069.384
543.547	1076.704
543.881	1084.013
544.214	1091.310
544.548	1098.596
544.881	1105.869
545.215	1113.132
545.548	1120.382
545.881	1127.620
546.215	1134.846
546.548	1142.060
546.882	1149.263
547.215	1156.453
547.549	1163.632
547.882	1170.800
548.215	1177.956
548.549	1185.102
548.882	1192.236
549.216	1199.361
549.549	1206.475
549.883	1213.580
550.216	1220.676
550.549	1227.764
550.883	1234.843
551.216	1241.915
551.550	1248.981
551.883	1256.040
552.217	1263.094
552.550	1270.143
552.884	1277.188
553.217	1284.231
553.550	1291.271
553.884	1298.310
554.217	1305.349
554.551	1312.389
554.884	1319.431
555.218	1326.476
555.551	1333.525
555.884	1340.579
556.218	1347.640
556.551	1354.709
556.885	1361.787
557.218	1368.875
557.552	1375.976
557.885	1383.089
558.218	1390.217
558.552	1397.362
558.885	1404.524
559.219	1411.705
559.552	1418.908
559.886	1426.133
560.219	1433.382
560.552	1440.657
560.886	1447.959
561.219	1455.291
561.553	1462.653
561.886	1470.049
562.220	1477.479
562.553	1484.945
562.886	1492.450
563.220	1499.994
563.553	1507.581
563.887	1515.211
564.220	1522.887
564.554	1530.610
564.887	1538.382
565.220	1546.206
565.554	1554.083
565.887	1562.015
566.221	1570.004
566.554	1578.051
566.888	1586.159
567.221	1594.330
567.555	1602.564
567.888	1610.865
568.221	1619.233
568.555	1627.671
568.888	1636.180
569.222	1644.761
569.555	1653.418
569.889	1662.150
570.222	1670.960
570.555	1679.849
570.889	1688.819
571.222	1697.871
571.556	1707.006
571.889	1716.227
572.223	1725.533
572.556	1734.926
572.889	1744.408
573.223	1753.979
573.556	1763.640
573.890	1773.393
574.223	1783.238
574.557	1793.175
574.890	1803.207
575.223	1813.332
575.557	1823.551
575.890	1833.866
576.224	1844.276
576.557	1854.781
576.891	1865.382
577.224	1876.078
577.557	1886.869
577.891	1897.756
578.224	1908.737
578.558	1919.812
578.891	1930.982
579.225	1942.244
579.558	1953.598
579.892	1965.044
580.225	1976.580
580.558	1988.204
580.892	1999.917
581.225	2011.715
581.559	2023.599
581.892	2035.565
582.226	2047.612
582.559	2059.738
582.892	2071.941
583.226	2084.219
583.559	2096.569
583.893	2108.989
584.226	2121.476
584.560	2134.027
584.893	2146.639
585.226	2159.310
585.560	2172.036
585.893	2184.814
586.227	2197.640
586.560	2210.510
586.894	2223.422
587.227	2236.370
587.560	2249.352
587.894	2262.362
588.227	2275.398
588.561	2288.453
588.894	2301.524
589.228	2314.607
589.561	2327.696
589.894	2340.786
590.228	2353.874
590.561	2366.953
590.895	2380.018
591.228	2393.065
591.562	2406.088
591.895	2419.081
592.228	2432.039
592.562	2444.956
592.895	2457.827
593.229	2470.646
593.562	2483.407
593.896	2496.105
594.229	2508.732
594.563	2521.284
594.896	2533.754
595.229	2546.136
595.563	2558.424
595.896	2570.612
596.230	2582.694
596.563	2594.663
596.897	2606.513
597.230	2618.238
597.563	2629.832
597.897	2641.288
598.230	2652.600
598.564	2663.763
598.897	2674.769
599.231	2685.613
599.564	2696.289
599.897	2706.790
600.231	2717.110
600.564	2727.244
600.898	2737.185
601.231	2746.928
601.565	2756.467
601.898	2765.796
602.231	2774.909
602.565	2783.801
602.898	2792.467
603.232	2800.901
603.565	2809.098
603.899	2817.052
604.232	2824.759
604.565	2832.214
604.899	2839.412
605.232	2846.348
605.566	2853.019
605.899	2859.419
606.233	2865.544
606.566	2871.391
606.899	2876.956
607.233	2882.234
607.566	2887.222
607.900	2891.918
608.233	2896.317
608.567	2900.416
608.900	2904.214
609.234	2907.707
609.567	2910.892
609.900	2913.768
610.234	2916.333
610.567	2918.583
610.901	2920.519
611.234	2922.138
611.568	2923.439
611.901	2924.421
612.234	2925.083
612.568	2925.425
612.901	2925.445
613.235	2925.144
613.568	2924.522
613.902	2923.579
614.235	2922.315
614.568	2920.731
614.902	2918.827
615.235	2916.605
615.569	2914.065
615.902	2911.210
616.236	2908.040
616.569	2904.558
616.902	2900.765
617.236	2896.664
617.569	2892.257
617.903	2887.547
618.236	2882.536
618.570	2877.227
618.903	2871.623
619.236	2865.728
619.570	2859.545
619.903	2853.078
620.237	2846.330
620.570	2839.306
620.904	2832.009
621.237	2824.444
621.570	2816.614
621.904	2808.526
622.237	2800.182
622.571	2791.589
622.904	2782.751
623.238	2773.672
623.571	2764.359
623.905	2754.816
624.238	2745.049
624.571	2735.063
624.905	2724.863
625.238	2714.456
625.572	2703.847
625.905	2693.042
626.239	2682.046
626.572	2670.866
626.905	2659.507
627.239	2647.976
627.572	2636.278
627.906	2624.419
628.239	2612.407
628.573	2600.246
628.906	2587.942
629.239	2575.503
629.573	2562.934
629.906	2550.242
630.240	2537.432
630.573	2524.510
630.907	2511.483
631.240	2498.358
631.573	2485.139
631.907	2471.833
632.240	2458.446
632.574	2444.983
632.907	2431.452
633.241	2417.857
633.574	2404.205
633.907	2390.501
634.241	2376.751
634.574	2362.960
634.908	2349.134
635.241	2335.278
635.575	2321.398
635.908	2307.500
636.241	2293.587
636.575	2279.665
636.908	2265.740
637.242	2251.815
637.575	2237.897
637.909	2223.989
638.242	2210.096
638.576	2196.222
638.909	2182.372
639.242	2168.550
639.576	2154.761
639.909	2141.007
640.243	2127.294
640.576	2113.624
640.910	2100.002
641.243	2086.430
641.576	2072.912
641.910	2059.452
642.243	2046.053
642.577	2032.717
642.910	2019.447
643.244	2006.247
643.577	1993.118
643.910	1980.064
644.244	1967.086
644.577	1954.188
644.911	1941.370
645.244	1928.635
645.578	1915.985
645.911	1903.422
646.244	1890.947
646.578	1878.561
646.911	1866.267
647.245	1854.066
647.578	1841.958
647.912	1829.945
648.245	1818.027
648.578	1806.206
648.912	1794.482
649.245	1782.857
649.579	1771.330
649.912	1759.901
650.246	1748.572
650.579	1737.343
650.912	1726.213
651.246	1715.183
651.579	1704.253
651.913	1693.423
652.246	1682.692
652.580	1672.061
652.913	1661.528
653.247	1651.095
653.580	1640.759
653.913	1630.521
654.247	1620.380
654.580	1610.335
654.914	1600.387
655.247	1590.533
655.581	1580.773
655.914	1571.107
656.247	1561.533
656.581	1552.050
656.914	1542.658
657.248	1533.356
657.581	1524.142
657.915	1515.015
658.248	1505.974
658.581	1497.018
658.915	1488.146
659.248	1479.357
659.582	1470.649
659.915	1462.021
660.249	1453.473
660.582	1445.002
660.915	1436.607
661.249	1428.287
661.582	1420.042
661.916	1411.868
662.249	1403.766
662.583	1395.734
662.916	1387.771
663.249	1379.875
663.583	1372.045
663.916	1364.279
664.250	1356.577
664.583	1348.938
664.917	1341.359
665.250	1333.840
665.583	1326.379
665.917	1318.976
666.250	1311.628
666.584	1304.336
666.917	1297.097
667.251	1289.911
667.584	1282.776
667.918	1275.691
668.251	1268.656
668.584	1261.668
668.918	1254.728
669.251	1247.834
669.585	1240.985
669.918	1234.180
670.252	1227.418
670.585	1220.699
670.918	1214.020
671.252	1207.383
671.585	1200.785
671.919	1194.225
672.252	1187.704
672.586	1181.220
672.919	1174.772
673.252	1168.361
673.586	1161.984
673.919	1155.642
674.253	1149.334
674.586	1143.058
674.920	1136.816
675.253	1130.605
675.586	1124.427
675.920	1118.279
676.253	1112.161
676.587	1106.074
676.920	1100.016
677.254	1093.988
677.587	1087.988
677.920	1082.017
678.254	1076.074
678.587	1070.158
678.921	1064.270
679.254	1058.409
679.588	1052.575
679.921	1046.768
680.254	1040.987
680.588	1035.233
680.921	1029.504
681.255	1023.801
681.588	1018.123
681.922	1012.472
682.255	1006.845
682.589	1001.244
682.922	995.667
683.255	990.116
683.589	984.590
683.922	979.088
684.256	973.611
684.589	968.159
684.923	962.731
685.256	957.328
685.589	951.950
685.923	946.596
686.256	941.266
686.590	935.961
686.923	930.681
687.257	925.425
687.590	920.193
687.923	914.986
688.257	909.803
688.590	904.645
688.924	899.511
689.257	894.402
689.591	889.317
689.924	884.256
690.257	879.221
690.591	874.209
690.924	869.223
691.258	864.260
691.591	859.323
691.925	854.410
692.258	849.522
692.591	844.658
692.925	839.819
693.258	835.004
693.592	830.214
693.925	825.448
694.259	820.708
694.592	815.991
694.925	811.300
695.259	806.632
695.592	801.990
695.926	797.371
696.259	792.777
696.593	788.208
696.926	783.663
697.260	779.142
697.593	774.645
697.926	770.172
698.260	765.724
698.593	761.299
698.927	756.899
699.260	752.522
699.594	748.169
699.927	743.839
700.260	739.534
700.594	735.251
700.927	730.992
701.261	726.756
701.594	722.543
701.928	718.353
702.261	714.185
702.594	710.041
702.928	705.919
703.261	701.819
703.595	697.741
703.928	693.685
704.262	689.651
704.595	685.639
704.928	681.648
705.262	677.679
705.595	673.730
705.929	669.803
706.262	665.896
706.596	662.010
706.929	658.144
707.262	654.298
707.596	650.472
707.929	646.666
708.263	642.879
708.596	639.112
708.930	635.363
709.263	631.633
709.596	627.922
709.930	624.229
710.263	620.554
710.597	616.898
710.930	613.258
711.264	609.637
711.597	606.032
711.931	602.444
712.264	598.873
712.597	595.318
712.931	591.780
713.264	588.258
713.598	584.751
713.931	581.260
714.265	577.784
714.598	574.323
714.931	570.877
715.265	567.445
715.598	564.028
715.932	560.625
716.265	557.236
716.599	553.860
716.932	550.498
717.265	547.149
717.599	543.813
717.932	540.489
718.266	537.179
718.599	533.880
718.933	530.594
719.266	527.319
719.599	524.056
719.933	520.805
720.266	517.564
720.600	514.335
720.933	511.117
721.267	507.910
721.600	504.713
721.933	501.526
722.267	498.349
722.600	495.183
722.934	492.026
723.267	488.879
723.601	485.741
723.934	482.613
724.267	479.493
724.601	476.383
724.934	473.282
725.268	470.189
725.601	467.105
725.935	464.030
726.268	460.963
726.602	457.904
726.935	454.853
727.268	451.810
727.602	448.775
727.935	445.748
728.269	442.729
728.602	439.717
728.936	436.713
729.269	433.716
729.602	430.726
729.936	427.744
730.269	424.769
730.603	421.802
730.936	418.841
731.270	415.888
731.603	412.941
731.936	410.002
732.270	407.069
732.603	404.143
732.937	401.225
733.270	398.313
733.604	395.408
733.937	392.509
734.270	389.618
734.604	386.734
734.937	383.856
735.271	380.985
735.604	378.121
735.938	375.264
736.271	372.413
736.604	369.570
736.938	366.733
737.271	363.903
737.605	361.081
737.938	358.265
738.272	355.456
738.605	352.655
738.938	349.860
739.272	347.073
739.605	344.293
739.939	341.520
740.272	338.755
740.606	335.997
740.939	333.247
741.273	330.504
741.606	327.768
741.939	325.041
742.273	322.321
742.606	319.609
742.940	316.905
743.273	314.208
743.607	311.520
743.940	308.840
744.273	306.169
744.607	303.506
744.940	300.851
745.274	298.205
745.607	295.567
745.941	292.938
746.274	290.318
746.607	287.707
746.941	285.105
747.274	282.512
747.608	279.928
747.941	277.354
748.275	274.789
748.608	272.234
748.941	269.688
749.275	267.152
749.608	264.626
749.942	262.110
750.275	259.604
750.609	257.108
750.942	254.623
751.275	252.148
751.609	249.683
751.942	247.229
752.276	244.786
752.609	242.354
752.943	239.932
753.276	237.522
753.609	235.123
753.943	232.735
754.276	230.359
754.610	227.994
754.943	225.640
755.277	223.299
755.610	220.969
755.944	218.651
756.277	216.344
756.610	214.050
756.944	211.769
757.277	209.499
757.611	207.242
757.944	204.997
758.278	202.765
758.611	200.545
758.944	198.339
759.278	196.145
759.611	193.964
759.945	191.795
760.278	189.640
760.612	187.499
760.945	185.370
761.278	183.254
761.612	181.152
761.945	179.064
762.279	176.989
762.612	174.927
762.946	172.880
763.279	170.845
763.612	168.825
763.946	166.819
764.279	164.826
764.613	162.847
764.946	160.883
765.280	158.932
765.613	156.995
765.946	155.073
766.280	153.165
766.613	151.271
766.947	149.391
767.280	147.526
767.614	145.675
767.947	143.838
768.280	142.016
768.614	140.208
768.947	138.415
769.281	136.636
769.614	134.872
769.948	133.122
770.281	131.386
770.615	129.666
770.948	127.960
771.281	126.268
771.615	124.591
771.948	122.929
772.282	121.281
772.615	119.648
772.949	118.029
773.282	116.425
773.615	114.836
773.949	113.261
774.282	111.701
774.616	110.155
774.949	108.624
775.283	107.107
775.616	105.605
775.949	104.118
776.283	102.645
776.616	101.186
776.950	99.742
777.283	98.312
777.617	96.896
777.950	95.495
778.283	94.108
778.617	92.735
778.950	91.377
779.284	90.033
779.617	88.702
779.951	87.386
780.284	86.084
780.617	84.796
780.951	83.522
781.284	82.262
781.618	81.016
781.951	79.783
782.285	78.564
782.618	77.359
782.951	76.167
783.285	74.989
783.618	73.825
783.952	72.674
784.285	71.536
784.619	70.412
784.952	69.300
785.286	68.202
785.619	67.117
785.952	66.045
786.286	64.986
786.619	63.940
786.953	62.907
787.286	61.886
787.620	60.878
787.953	59.883
788.286	58.900
788.620	57.929
788.953	56.971
789.287	56.025
789.620	55.091
789.954	54.169
790.287	53.259
790.620	52.362
790.954	51.475
791.287	50.601
791.621	49.738
791.954	48.887
792.288	48.048
792.621	47.219
792.954	46.402
793.288	45.596
793.621	44.801
793.955	44.018
794.288	43.245
794.622	42.483
794.955	41.731
795.288	40.991
795.622	40.261
795.955	39.541
796.289	38.832
796.622	38.132
796.956	37.444
797.289	36.765
797.623	36.096
797.956	35.437
798.289	34.787
798.623	34.148
798.956	33.518
799.290	32.897
799.623	32.286
799.957	31.684
800.290	31.092
800.623	30.508
800.957	29.934
801.290	29.368
801.624	28.811
801.957	28.263
802.291	27.724
802.624	27.193
802.957	26.670
803.291	26.156
803.624	25.650
803.958	25.153
804.291	24.663
804.625	24.181
804.958	23.707
805.291	23.241
805.625	22.783
805.958	22.332
806.292	21.889
806.625	21.453
806.959	21.024
807.292	20.603
807.625	20.189
807.959	19.781
808.292	19.381
808.626	18.988
808.959	18.601
809.293	18.221
809.626	17.848
809.959	17.481
810.293	17.121
810.626	16.767
810.960	16.419
811.293	16.077
811.627	15.742
811.960	15.412
812.294	15.088
812.627	14.771
812.960	14.459
813.294	14.152
813.627	13.851
813.961	13.556
814.294	13.266
814.628	12.982
814.961	12.703
815.294	12.429
815.628	12.160
815.961	11.896
816.295	11.637
816.628	11.383
816.962	11.134
817.295	10.889
817.628	10.649
817.962	10.414
818.295	10.184
818.629	9.958
818.962	9.736
819.296	9.518
819.629	9.305
819.962	9.096
820.296	8.891
820.629	8.690
820.963	8.493
821.296	8.300
821.630	8.111
821.963	7.926
822.296	7.744
822.630	7.566
822.963	7.392
823.297	7.221
823.630	7.054
823.964	6.890
824.297	6.730
824.630	6.573
824.964	6.419
825.297	6.268
825.631	6.120
825.964	5.976
826.298	5.834
826.631	5.696
826.965	5.560
827.298	5.428
827.631	5.298
827.965	5.171
828.298	5.046
828.632	4.925
828.965	4.805
829.299	4.689
829.632	4.575
829.965	4.463
830.299	4.354
830.632	4.248
830.966	4.143
831.299	4.041
831.633	3.941
831.966	3.844
832.299	3.748
832.633	3.655
832.966	3.564
833.300	3.475
833.633	3.388
833.967	3.303
834.300	3.219
834.633	3.138
834.967	3.059
835.300	2.981
835.634	2.905
835.967	2.831
836.301	2.758
836.634	2.688
836.967	2.619
837.301	2.551
837.634	2.485
837.968	2.421
838.301	2.358
838.635	2.297
838.968	2.237
839.301	2.178
839.635	2.121
839.968	2.065
840.302	2.011
840.635	1.958
840.969	1.906
841.302	1.855
841.636	1.806
841.969	1.758
842.302	1.711
842.636	1.665
842.969	1.620
843.303	1.577
843.636	1.534
843.970	1.493
844.303	1.452
844.636	1.413
844.970	1.374
845.303	1.337
845.637	1.300
845.970	1.265
846.304	1.230
846.637	1.196
846.970	1.163
847.304	1.131
847.637	1.099
847.971	1.069
848.304	1.039
848.638	1.010
848.971	0.982
849.304	0.954
849.638	0.927
849.971	0.901
850.305	0.876
850.638	0.851
850.972	0.827
851.305	0.803
851.638	0.780
851.972	0.758
852.305	0.736
852.639	0.715
852.972	0.695
853.306	0.675
853.639	0.655
853.972	0.636
854.306	0.618
854.639	0.600
854.973	0.582
855.306	0.565
855.640	0.549
855.973	0.533
856.307	0.517
856.640	0.502
856.973	0.487
857.307	0.473
857.640	0.459
857.974	0.445
858.307	0.432
858.641	0.419
858.974	0.406
859.307	0.394
859.641	0.382
859.974	0.371
860.308	0.360
860.641	0.349
860.975	0.338
861.308	0.328
861.641	0.318
861.975	0.308
862.308	0.299
862.642	0.290
862.975	0.281
863.309	0.272
863.642	0.264
863.975	0.256
864.309	0.248
864.642	0.240
864.976	0.233
865.309	0.225
865.643	0.218
865.976	0.212
866.309	0.205
866.643	0.199
866.976	0.192
867.310	0.186
867.643	0.180
867.977	0.175
868.310	0.169
868.643	0.164
868.977	0.159
869.310	0.154
869.644	0.149
869.977	0.144
870.311	0.139
870.644	0.135
870.978	0.130
871.311	0.126
871.644	0.122
871.978	0.118
872.311	0.114
872.645	0.111
872.978	0.107
873.312	0.104
873.645	0.100
873.978	0.097
874.312	0.094
874.645	0.091
874.979	0.088
875.312	0.085
875.646	0.082
875.979	0.079
876.312	0.077
876.646	0.074
876.979	0.072
877.313	0.069
877.646	0.067
877.980	0.065
878.313	0.063
878.646	0.060
878.980	0.058
879.313	0.056
879.647	0.055
879.980	0.053
880.314	0.051
880.647	0.049
880.980	0.047
881.314	0.046
881.647	0.044
881.981	0.043
882.314	0.041
882.648	0.040
882.981	0.039
883.314	0.037
883.648	0.036
883.981	0.035
884.315	0.033
884.648	0.032
884.982	0.031
885.315	0.030
885.649	0.029
885.982	0.028
886.315	0.027
886.649	0.026
886.982	0.025
887.316	0.024
887.649	0.023
887.983	0.023
888.316	0.022
888.649	0.021
888.983	0.020
889.316	0.020
889.650	0.019
889.983	0.018
890.317	0.018
890.650	0.017
890.983	0.016
891.317	0.016
891.650	0.015
891.984	0.015
892.317	0.014
892.651	0.014
892.984	0.013
893.317	0.013
893.651	0.012
893.984	0.012
894.318	0.011
894.651	0.011
894.985	0.010
895.318	0.010
895.651	0.010
895.985	0.009
896.318	0.009
896.652	0.009
896.985	0.008
897.319	0.008
897.652	0.008
897.985	0.007
898.319	0.007
898.652	0.007
898.986	0.007
899.319	0.006
899.653	0.006
899.986	0.006
900.320	0.006
900.653	0.005
900.986	0.005
901.320	0.005
901.653	0.005
901.987	0.005
902.320	0.005
902.654	0.004
902.987	0.004
903.320	0.004
903.654	0.004
903.987	0.004
904.321	0.004
904.654	0.003
904.988	0.003
905.321	0.003
905.654	0.003
905.988	0.003
906.321	0.003
906.655	0.003
906.988	0.003
907.322	0.003
907.655	0.002
907.988	0.002
908.322	0.002
908.655	0.002
908.989	0.002
909.322	0.002
909.656	0.002
909.989	0.002
910.322	0.002
910.656	0.002
910.989	0.002
911.323	0.002
911.656	0.001
911.990	0.001
912.323	0.001
912.656	0.001
912.990	0.001
913.323	0.001
913.657	0.001
913.990	0.001
914.324	0.001
914.657	0.001
914.991	0.001
915.324	0.001
915.657	0.001
915.991	0.001
916.324	0.001
916.658	0.001
916.991	0.001
917.325	0.001
917.658	0.001
917.991	0.001
918.325	0.001
918.658	0.001
918.992	0.001
919.325	0.001
919.659	0.001
919.992	0.001
920.325	0.001
920.659	0.000
920.992	0.000
921.326	0.000
921.659	0.000
921.993	0.000
922.326	0.000
922.659	0.000
922.993	0.000
923.326	0.000
923.660	0.000
923.993	0.000
924.327	0.000
924.660	0.000
924.993	0.000
925.327	0.000
925.660	0.000
925.994	0.000
926.327	0.000
926.661	0.000
926.994	0.000
927.327	0.000
927.661	0.000
927.994	0.000
928.328	0.000
928.661	0.000
928.995	0.000
929.328	0.000
929.662	0.000
929.995	0.000
930.328	0.000
930.662	0.000
930.995	0.000
931.329	0.000
931.662	0.000
931.996	0.000
932.329	0.000
932.662	0.000
932.996	0.000
933.329	0.000
933.663	0.000
933.996	0.000
934.330	0.000
934.663	0.000
934.996	0.000
935.330	0.000
935.663	0.000
935.997	0.000
936.330	0.000
936.664	0.000
936.997	0.000
937.330	0.000
937.664	0.000
937.997	0.000
938.331	0.000
938.664	0.000
938.998	0.000
939.331	0.000
939.664	0.000
939.998	0.000
940.331	0.000
940.665	0.000
940.998	0.000
941.332	0.000
941.665	0.000
941.998	0.000
942.332	0.000
942.665	0.000
942.999	0.000
943.332	0.000
943.666	0.000
943.999	0.000
944.333	0.000
944.666	0.000
944.999	0.000
945.333	0.000
945.666	0.000
946.000	0.000
946.333	0.000
946.667	0.000
947.000	0.000
947.333	0.000
947.667	0.000
948.000	0.000
948.334	0.000
948.667	0.000
949.001	0.000
949.334	0.000
949.667	0.000
950.001	0.000
950.334	0.000
950.668	0.000
951.001	0.000
951.335	0.000
951.668	0.000
952.001	0.000
952.335	0.000
952.668	0.000
953.002	0.000
953.335	0.000
953.669	0.000
954.002	0.000
954.335	0.000
954.669	0.000
955.002	0.000
955.336	0.000
955.669	0.000
956.003	0.000
956.336	0.000
956.669	0.000
957.003	0.000
957.336	0.000
957.670	0.000
958.003	0.000
958.337	0.000
958.670	0.000
959.004	0.000
959.337	0.000
959.670	0.000
960.004	0.000
960.337	0.000
960.671	0.000
961.004	0.000
961.338	0.000
961.671	0.000
962.004	0.000
962.338	0.000
962.671	0.000
963.005	0.000
963.338	0.000
963.672	0.000
964.005	0.000
964.338	0.000
964.672	0.000
965.005	0.000
965.339	0.000
965.672	0.000
966.006	0.000
966.339	0.000
966.672	0.000
967.006	0.000
967.339	0.000
967.673	0.000
968.006	0.000
968.340	0.000
968.673	0.000
969.006	0.000
969.340	0.000
969.673	0.000
970.007	0.000
970.340	0.000
970.674	0.000
971.007	0.000
971.340	0.000
971.674	0.000
972.007	0.000
972.341	0.000
972.674	0.000
973.008	0.000
973.341	0.000
973.675	0.000
974.008	0.000
974.341	0.000
974.675	0.000
975.008	0.000
975.342	0.000
975.675	0.000
976.009	0.000
976.342	0.000
976.675	0.000
977.009	0.000
977.342	0.000
977.676	0.000
978.009	0.000
978.343	0.000
978.676	0.000
979.009	0.000
979.343	0.000
979.676	0.000
980.010	0.000
980.343	0.000
980.677	0.000
981.010	0.000
981.343	0.000
981.677	0.000
982.010	0.000
982.344	0.000
982.677	0.000
983.011	0.000
983.344	0.000
983.677	0.000
984.011	0.000
984.344	0.000
984.678	0.000
985.011	0.000
985.345	0.000
985.678	0.000
986.011	0.000
986.345	0.000
986.678	0.000
987.012	0.000
987.345	0.000
987.679	0.000
988.012	0.000
988.346	0.000
988.679	0.000
989.012	0.000
989.346	0.000
989.679	0.000
990.013	0.000
990.346	0.000
990.680	0.000
991.013	0.000
991.346	0.000
991.680	0.000
992.013	0.000
992.347	0.000
992.680	0.000
993.014	0.000
993.347	0.000
993.680	0.000
994.014	0.000
994.347	0.000
994.681	0.000
995.014	0.000
995.348	0.000
995.681	0.000
996.014	0.000
996.348	0.000
996.681	0.000
997.015	0.000
997.348	0.000
997.682	0.000
998.015	0.000
998.348	0.000
998.682	0.000
999.015	0.000
999.349	0.000
999.682	0.000
1000.016	0.000
1000.349	0.000
1000.682	0.000
1001.016	0.000
1001.349	0.000
1001.683	0.000
1002.016	0.000
1002.350	0.000
1002.683	0.000
1003.017	0.000
1003.350	0.000
1003.683	0.000
1004.017	0.000
1004.350	0.000
1004.684	0.000
1005.017	0.000
1005.351	0.000
1005.684	0.000
1006.017	0.000
1006.351	0.000
1006.684	0.000
1007.018	0.000
1007.351	0.000
1007.685	0.000
1008.018	0.000
1008.351	0.000
1008.685	0.000
1009.018	0.000
1009.352	0.000
1009.685	0.000
1010.019	0.000
1010.352	0.000
1010.685	0.000
1011.019	0.000
1011.352	0.000
1011.686	0.000
1012.019	0.000
1012.353	0.000
1012.686	0.000
1013.019	0.000
1013.353	0.000
1013.686	0.000
1014.020	0.000
1014.353	0.000
1014.687	0.000
1015.020	0.000
1015.353	0.000
1015.687	0.000
1016.020	0.000
1016.354	0.000
1016.687	0.000
1017.021	0.000
1017.354	0.000
1017.688	0.000
1018.021	0.000
1018.354	0.000
1018.688	0.000
1019.021	0.000
1019.355	0.000
1019.688	0.000
1020.022	0.000
1020.355	0.000
1020.688	0.000
1021.022	0.000
1021.355	0.000
1021.689	0.000
1022.022	0.000
1022.356	0.000
1022.689	0.000
