Data from repetition_4.txt_16-47-09-365.txt Node
Date: Sun Jun 13 23:27:09 CET 2021
User: fcossio
Spectrometer: FLMS15016
Trigger mode: 0
Integration Time (sec): 3.000000E-1Scans to average: 1
Electric dark correction enabled: true
Nonlinearity correction enabled: false
Boxcar width: 0
XAxis mode: Wavelengths
Number of Pixels in Spectrum: 2048
>>>>>Begin Spectral Data<<<<<
340.154	0.000
340.487	0.000
340.821	0.000
341.154	0.000
341.488	0.000
341.821	0.000
342.155	0.000
342.488	0.000
342.821	0.000
343.155	0.000
343.488	0.000
343.822	0.000
344.155	0.000
344.489	0.000
344.822	0.000
345.155	0.000
345.489	0.000
345.822	0.000
346.156	0.000
346.489	0.000
346.823	0.000
347.156	0.000
347.490	0.000
347.823	0.000
348.156	0.000
348.490	0.000
348.823	0.000
349.157	0.000
349.490	0.000
349.824	0.000
350.157	0.000
350.490	0.000
350.824	0.000
351.157	0.000
351.491	0.000
351.824	0.000
352.158	0.000
352.491	0.000
352.824	0.000
353.158	0.000
353.491	0.000
353.825	0.000
354.158	0.000
354.492	0.000
354.825	0.000
355.158	0.000
355.492	0.000
355.825	0.000
356.159	0.000
356.492	0.000
356.826	0.000
357.159	0.000
357.492	0.000
357.826	0.000
358.159	0.000
358.493	0.000
358.826	0.000
359.160	0.000
359.493	0.000
359.826	0.000
360.160	0.000
360.493	0.000
360.827	0.000
361.160	0.000
361.494	0.000
361.827	0.000
362.161	0.000
362.494	0.000
362.827	0.000
363.161	0.000
363.494	0.000
363.828	0.000
364.161	0.000
364.495	0.000
364.828	0.000
365.161	0.000
365.495	0.000
365.828	0.001
366.162	0.001
366.495	0.001
366.829	0.001
367.162	0.001
367.495	0.001
367.829	0.001
368.162	0.001
368.496	0.001
368.829	0.001
369.163	0.001
369.496	0.001
369.829	0.001
370.163	0.001
370.496	0.001
370.830	0.001
371.163	0.001
371.497	0.001
371.830	0.001
372.163	0.001
372.497	0.001
372.830	0.001
373.164	0.001
373.497	0.002
373.831	0.002
374.164	0.002
374.497	0.002
374.831	0.002
375.164	0.002
375.498	0.002
375.831	0.002
376.165	0.002
376.498	0.002
376.832	0.002
377.165	0.003
377.498	0.003
377.832	0.003
378.165	0.003
378.499	0.003
378.832	0.003
379.166	0.003
379.499	0.004
379.832	0.004
380.166	0.004
380.499	0.004
380.833	0.004
381.166	0.004
381.500	0.005
381.833	0.005
382.166	0.005
382.500	0.005
382.833	0.006
383.167	0.006
383.500	0.006
383.834	0.006
384.167	0.007
384.500	0.007
384.834	0.007
385.167	0.008
385.501	0.008
385.834	0.008
386.168	0.009
386.501	0.009
386.834	0.009
387.168	0.010
387.501	0.010
387.835	0.011
388.168	0.011
388.502	0.012
388.835	0.012
389.168	0.013
389.502	0.013
389.835	0.014
390.169	0.015
390.502	0.015
390.836	0.016
391.169	0.017
391.503	0.017
391.836	0.018
392.169	0.019
392.503	0.020
392.836	0.020
393.170	0.021
393.503	0.022
393.837	0.023
394.170	0.024
394.503	0.025
394.837	0.026
395.170	0.027
395.504	0.029
395.837	0.030
396.171	0.031
396.504	0.032
396.837	0.034
397.171	0.035
397.504	0.037
397.838	0.038
398.171	0.040
398.505	0.041
398.838	0.043
399.171	0.045
399.505	0.047
399.838	0.049
400.172	0.051
400.505	0.053
400.839	0.055
401.172	0.057
401.505	0.060
401.839	0.062
402.172	0.065
402.506	0.067
402.839	0.070
403.173	0.073
403.506	0.076
403.839	0.079
404.173	0.082
404.506	0.085
404.840	0.089
405.173	0.092
405.507	0.096
405.840	0.100
406.174	0.104
406.507	0.108
406.840	0.112
407.174	0.117
407.507	0.121
407.841	0.126
408.174	0.131
408.508	0.136
408.841	0.141
409.174	0.147
409.508	0.153
409.841	0.159
410.175	0.165
410.508	0.171
410.842	0.178
411.175	0.185
411.508	0.192
411.842	0.199
412.175	0.207
412.509	0.215
412.842	0.223
413.176	0.231
413.509	0.240
413.842	0.249
414.176	0.259
414.509	0.269
414.843	0.279
415.176	0.289
415.510	0.300
415.843	0.311
416.176	0.323
416.510	0.335
416.843	0.347
417.177	0.360
417.510	0.374
417.844	0.387
418.177	0.402
418.510	0.416
418.844	0.432
419.177	0.447
419.511	0.464
419.844	0.481
420.178	0.498
420.511	0.516
420.845	0.535
421.178	0.554
421.511	0.574
421.845	0.595
422.178	0.616
422.512	0.638
422.845	0.661
423.179	0.684
423.512	0.709
423.845	0.734
424.179	0.760
424.512	0.786
424.846	0.814
425.179	0.843
425.513	0.872
425.846	0.902
426.179	0.934
426.513	0.966
426.846	1.000
427.180	1.034
427.513	1.070
427.847	1.107
428.180	1.145
428.513	1.184
428.847	1.225
429.180	1.266
429.514	1.309
429.847	1.354
430.181	1.400
430.514	1.447
430.847	1.496
431.181	1.546
431.514	1.598
431.848	1.651
432.181	1.706
432.515	1.763
432.848	1.821
433.181	1.881
433.515	1.943
433.848	2.007
434.182	2.073
434.515	2.141
434.849	2.211
435.182	2.283
435.516	2.358
435.849	2.434
436.182	2.513
436.516	2.594
436.849	2.677
437.183	2.763
437.516	2.851
437.850	2.943
438.183	3.036
438.516	3.133
438.850	3.232
439.183	3.334
439.517	3.439
439.850	3.547
440.184	3.658
440.517	3.773
440.850	3.890
441.184	4.011
441.517	4.136
441.851	4.263
442.184	4.395
442.518	4.530
442.851	4.669
443.184	4.812
443.518	4.959
443.851	5.110
444.185	5.265
444.518	5.424
444.852	5.588
445.185	5.756
445.518	5.929
445.852	6.106
446.185	6.288
446.519	6.476
446.852	6.668
447.186	6.865
447.519	7.068
447.852	7.276
448.186	7.489
448.519	7.709
448.853	7.934
449.186	8.165
449.520	8.401
449.853	8.645
450.187	8.894
450.520	9.150
450.853	9.412
451.187	9.682
451.520	9.958
451.854	10.241
452.187	10.532
452.521	10.829
452.854	11.135
453.187	11.448
453.521	11.769
453.854	12.097
454.188	12.435
454.521	12.780
454.855	13.134
455.188	13.497
455.521	13.868
455.855	14.249
456.188	14.639
456.522	15.038
456.855	15.447
457.189	15.866
457.522	16.295
457.855	16.734
458.189	17.184
458.522	17.644
458.856	18.116
459.189	18.598
459.523	19.092
459.856	19.597
460.189	20.114
460.523	20.643
460.856	21.184
461.190	21.737
461.523	22.303
461.857	22.882
462.190	23.475
462.523	24.080
462.857	24.699
463.190	25.332
463.524	25.980
463.857	26.641
464.191	27.318
464.524	28.009
464.858	28.715
465.191	29.437
465.524	30.175
465.858	30.928
466.191	31.698
466.525	32.485
466.858	33.288
467.192	34.108
467.525	34.946
467.858	35.801
468.192	36.675
468.525	37.567
468.859	38.477
469.192	39.406
469.526	40.354
469.859	41.322
470.192	42.310
470.526	43.318
470.859	44.346
471.193	45.395
471.526	46.465
471.860	47.557
472.193	48.670
472.526	49.805
472.860	50.963
473.193	52.143
473.527	53.347
473.860	54.574
474.194	55.824
474.527	57.099
474.860	58.398
475.194	59.721
475.527	61.070
475.861	62.445
476.194	63.845
476.528	65.271
476.861	66.724
477.194	68.203
477.528	69.710
477.861	71.244
478.195	72.807
478.528	74.397
478.862	76.016
479.195	77.664
479.529	79.342
479.862	81.049
480.195	82.787
480.529	84.554
480.862	86.353
481.196	88.183
481.529	90.044
481.863	91.937
482.196	93.862
482.529	95.820
482.863	97.811
483.196	99.836
483.530	101.894
483.863	103.986
484.197	106.112
484.530	108.274
484.863	110.470
485.197	112.702
485.530	114.970
485.864	117.274
486.197	119.614
486.531	121.992
486.864	124.407
487.197	126.859
487.531	129.349
487.864	131.878
488.198	134.445
488.531	137.051
488.865	139.697
489.198	142.382
489.531	145.107
489.865	147.872
490.198	150.678
490.532	153.525
490.865	156.413
491.199	159.342
491.532	162.313
491.865	165.327
492.199	168.383
492.532	171.481
492.866	174.623
493.199	177.808
493.533	181.036
493.866	184.309
494.200	187.625
494.533	190.986
494.866	194.391
495.200	197.841
495.533	201.336
495.867	204.877
496.200	208.463
496.534	212.095
496.867	215.772
497.200	219.496
497.534	223.267
497.867	227.083
498.201	230.947
498.534	234.857
498.868	238.815
499.201	242.820
499.534	246.872
499.868	250.972
500.201	255.119
500.535	259.314
500.868	263.557
501.202	267.848
501.535	272.187
501.868	276.574
502.202	281.009
502.535	285.493
502.869	290.025
503.202	294.605
503.536	299.234
503.869	303.911
504.202	308.637
504.536	313.411
504.869	318.234
505.203	323.105
505.536	328.024
505.870	332.992
506.203	338.008
506.536	343.072
506.870	348.184
507.203	353.345
507.537	358.553
507.870	363.809
508.204	369.113
508.537	374.464
508.871	379.863
509.204	385.309
509.537	390.802
509.871	396.342
510.204	401.928
510.538	407.561
510.871	413.240
511.205	418.965
511.538	424.736
511.871	430.553
512.205	436.414
512.538	442.320
512.872	448.271
513.205	454.266
513.539	460.305
513.872	466.388
514.205	472.514
514.539	478.683
514.872	484.894
515.206	491.147
515.539	497.442
515.873	503.779
516.206	510.156
516.539	516.573
516.873	523.031
517.206	529.528
517.540	536.063
517.873	542.638
518.207	549.250
518.540	555.900
518.873	562.587
519.207	569.311
519.540	576.070
519.874	582.865
520.207	589.695
520.541	596.559
520.874	603.456
521.207	610.387
521.541	617.350
521.874	624.345
522.208	631.372
522.541	638.429
522.875	645.516
523.208	652.632
523.542	659.778
523.875	666.951
524.208	674.152
524.542	681.380
524.875	688.634
525.209	695.913
525.542	703.218
525.876	710.546
526.209	717.898
526.542	725.273
526.876	732.670
527.209	740.089
527.543	747.529
527.876	754.988
528.210	762.468
528.543	769.965
528.876	777.482
529.210	785.015
529.543	792.566
529.877	800.132
530.210	807.714
530.544	815.311
530.877	822.923
531.210	830.548
531.544	838.185
531.877	845.835
532.211	853.498
532.544	861.172
532.878	868.865
533.211	876.611
533.544	884.571
533.878	893.399
534.211	905.466
534.545	928.282
534.878	982.697
535.212	1118.969
535.545	1441.096
535.878	2130.206
536.212	3441.779
536.545	5640.685
536.879	8855.560
537.212	12893.677
537.546	17131.699
537.879	20613.111
538.213	22381.616
538.546	21904.054
538.879	19330.377
539.213	15419.085
539.546	11178.285
539.880	7452.341
540.213	4680.557
540.547	2899.138
540.880	1899.815
541.213	1408.495
541.547	1197.535
541.880	1120.280
542.214	1098.682
542.547	1097.438
542.881	1102.763
543.214	1109.965
543.547	1117.645
543.881	1125.435
544.214	1133.248
544.548	1141.067
544.881	1148.890
545.215	1156.716
545.548	1164.545
545.881	1172.379
546.215	1180.216
546.548	1188.058
546.882	1195.906
547.215	1203.759
547.549	1211.618
547.882	1219.485
548.215	1227.359
548.549	1235.241
548.882	1243.132
549.216	1251.033
549.549	1258.944
549.883	1266.867
550.216	1274.802
550.549	1282.750
550.883	1290.712
551.216	1298.689
551.550	1306.682
551.883	1314.692
552.217	1322.721
552.550	1330.768
552.884	1338.836
553.217	1346.925
553.550	1355.036
553.884	1363.172
554.217	1371.333
554.551	1379.519
554.884	1387.734
555.218	1395.977
555.551	1404.251
555.884	1412.556
556.218	1420.895
556.551	1429.267
556.885	1437.676
557.218	1446.121
557.552	1454.605
557.885	1463.129
558.218	1471.695
558.552	1480.303
558.885	1488.956
559.219	1497.654
559.552	1506.400
559.886	1515.194
560.219	1524.039
560.552	1532.935
560.886	1541.884
561.219	1550.888
561.553	1559.947
561.886	1569.064
562.220	1578.239
562.553	1587.474
562.886	1596.770
563.220	1606.129
563.553	1615.551
563.887	1625.039
564.220	1634.592
564.554	1644.214
564.887	1653.903
565.220	1663.662
565.554	1673.492
565.887	1683.393
566.221	1693.367
566.554	1703.414
566.888	1713.535
567.221	1723.731
567.555	1734.003
567.888	1744.351
568.221	1754.775
568.555	1765.277
568.888	1775.857
569.222	1786.514
569.555	1797.249
569.889	1808.063
570.222	1818.955
570.555	1829.926
570.889	1840.975
571.222	1852.102
571.556	1863.307
571.889	1874.589
572.223	1885.948
572.556	1897.383
572.889	1908.894
573.223	1920.479
573.556	1932.139
573.890	1943.871
574.223	1955.675
574.557	1967.549
574.890	1979.493
575.223	1991.503
575.557	2003.580
575.890	2015.721
576.224	2027.925
576.557	2040.189
576.891	2052.511
577.224	2064.889
577.557	2077.321
577.891	2089.804
578.224	2102.336
578.558	2114.914
578.891	2127.535
579.225	2140.197
579.558	2152.895
579.892	2165.628
580.225	2178.391
580.558	2191.181
580.892	2203.995
581.225	2216.829
581.559	2229.679
581.892	2242.541
582.226	2255.411
582.559	2268.286
582.892	2281.160
583.226	2294.030
583.559	2306.891
583.893	2319.738
584.226	2332.567
584.560	2345.373
584.893	2358.152
585.226	2370.898
585.560	2383.605
585.893	2396.270
586.227	2408.887
586.560	2421.451
586.894	2433.956
587.227	2446.397
587.560	2458.768
587.894	2471.065
588.227	2483.280
588.561	2495.410
588.894	2507.447
589.228	2519.387
589.561	2531.224
589.894	2542.951
590.228	2554.564
590.561	2566.056
590.895	2577.421
591.228	2588.653
591.562	2599.748
591.895	2610.698
592.228	2621.498
592.562	2632.143
592.895	2642.626
593.229	2652.942
593.562	2663.084
593.896	2673.048
594.229	2682.828
594.563	2692.417
594.896	2701.811
595.229	2711.004
595.563	2719.990
595.896	2728.764
596.230	2737.322
596.563	2745.657
596.897	2753.765
597.230	2761.640
597.563	2769.278
597.897	2776.674
598.230	2783.823
598.564	2790.721
598.897	2797.363
599.231	2803.745
599.564	2809.862
599.897	2815.711
600.231	2821.288
600.564	2826.589
600.898	2831.611
601.231	2836.349
601.565	2840.801
601.898	2844.963
602.231	2848.833
602.565	2852.408
602.898	2855.684
603.232	2858.660
603.565	2861.334
603.899	2863.703
604.232	2865.765
604.565	2867.518
604.899	2868.962
605.232	2870.094
605.566	2870.914
605.899	2871.421
606.233	2871.613
606.566	2871.491
606.899	2871.053
607.233	2870.300
607.566	2869.231
607.900	2867.848
608.233	2866.150
608.567	2864.138
608.900	2861.812
609.234	2859.174
609.567	2856.225
609.900	2852.966
610.234	2849.399
610.567	2845.526
610.901	2841.348
611.234	2836.868
611.568	2832.088
611.901	2827.010
612.234	2821.638
612.568	2815.973
612.901	2810.020
613.235	2803.781
613.568	2797.259
613.902	2790.458
614.235	2783.383
614.568	2776.035
614.902	2768.421
615.235	2760.543
615.569	2752.406
615.902	2744.014
616.236	2735.372
616.569	2726.485
616.902	2717.357
617.236	2707.993
617.569	2698.399
617.903	2688.578
618.236	2678.537
618.570	2668.281
618.903	2657.815
619.236	2647.145
619.570	2636.276
619.903	2625.213
620.237	2613.963
620.570	2602.531
620.904	2590.923
621.237	2579.145
621.570	2567.203
621.904	2555.103
622.237	2542.850
622.571	2530.450
622.904	2517.910
623.238	2505.236
623.571	2492.434
623.905	2479.509
624.238	2466.467
624.571	2453.316
624.905	2440.060
625.238	2426.706
625.572	2413.259
625.905	2399.726
626.239	2386.113
626.572	2372.424
626.905	2358.667
627.239	2344.847
627.572	2330.970
627.906	2317.040
628.239	2303.065
628.573	2289.049
628.906	2274.997
629.239	2260.916
629.573	2246.811
629.906	2232.686
630.240	2218.547
630.573	2204.399
630.907	2190.247
631.240	2176.095
631.573	2161.949
631.907	2147.814
632.240	2133.693
632.574	2119.591
632.907	2105.512
633.241	2091.462
633.574	2077.443
633.907	2063.460
634.241	2049.517
634.574	2035.617
634.908	2021.765
635.241	2007.964
635.575	1994.216
635.908	1980.527
636.241	1966.898
636.575	1953.333
636.908	1939.834
637.242	1926.406
637.575	1913.049
637.909	1899.767
638.242	1886.563
638.576	1873.439
638.909	1860.396
639.242	1847.438
639.576	1834.565
639.909	1821.781
640.243	1809.086
640.576	1796.482
640.910	1783.972
641.243	1771.555
641.576	1759.235
641.910	1747.011
642.243	1734.885
642.577	1722.858
642.910	1710.931
643.244	1699.105
643.577	1687.379
643.910	1675.756
644.244	1664.235
644.577	1652.817
644.911	1641.503
645.244	1630.291
645.578	1619.184
645.911	1608.180
646.244	1597.279
646.578	1586.482
646.911	1575.789
647.245	1565.198
647.578	1554.711
647.912	1544.326
648.245	1534.043
648.578	1523.862
648.912	1513.781
649.245	1503.801
649.579	1493.921
649.912	1484.140
650.246	1474.458
650.579	1464.873
650.912	1455.384
651.246	1445.991
651.579	1436.693
651.913	1427.489
652.246	1418.378
652.580	1409.359
652.913	1400.431
653.247	1391.592
653.580	1382.842
653.913	1374.180
654.247	1365.604
654.580	1357.114
654.914	1348.707
655.247	1340.384
655.581	1332.142
655.914	1323.980
656.247	1315.898
656.581	1307.895
656.914	1299.968
657.248	1292.117
657.581	1284.340
657.915	1276.637
658.248	1269.005
658.581	1261.445
658.915	1253.954
659.248	1246.532
659.582	1239.178
659.915	1231.889
660.249	1224.666
660.582	1217.506
660.915	1210.409
661.249	1203.374
661.582	1196.400
661.916	1189.485
662.249	1182.629
662.583	1175.830
662.916	1169.087
663.249	1162.400
663.583	1155.768
663.916	1149.188
664.250	1142.662
664.583	1136.187
664.917	1129.763
665.250	1123.388
665.583	1117.063
665.917	1110.786
666.250	1104.557
666.584	1098.374
666.917	1092.237
667.251	1086.145
667.584	1080.098
667.918	1074.094
668.251	1068.134
668.584	1062.216
668.918	1056.340
669.251	1050.505
669.585	1044.710
669.918	1038.956
670.252	1033.242
670.585	1027.567
670.918	1021.930
671.252	1016.332
671.585	1010.771
671.919	1005.247
672.252	999.760
672.586	994.310
672.919	988.896
673.252	983.518
673.586	978.175
673.919	972.867
674.253	967.594
674.586	962.356
674.920	957.151
675.253	951.981
675.586	946.845
675.920	941.742
676.253	936.672
676.587	931.635
676.920	926.631
677.254	921.660
677.587	916.721
677.920	911.815
678.254	906.940
678.587	902.098
678.921	897.288
679.254	892.509
679.588	887.762
679.921	883.046
680.254	878.362
680.588	873.709
680.921	869.087
681.255	864.496
681.588	859.936
681.922	855.407
682.255	850.908
682.589	846.440
682.922	842.003
683.255	837.596
683.589	833.219
683.922	828.873
684.256	824.557
684.589	820.271
684.923	816.014
685.256	811.788
685.589	807.591
685.923	803.424
686.256	799.286
686.590	795.178
686.923	791.099
687.257	787.050
687.590	783.029
687.923	779.038
688.257	775.075
688.590	771.140
688.924	767.235
689.257	763.358
689.591	759.508
689.924	755.688
690.257	751.895
690.591	748.129
690.924	744.392
691.258	740.681
691.591	736.998
691.925	733.342
692.258	729.713
692.591	726.111
692.925	722.535
693.258	718.985
693.592	715.461
693.925	711.963
694.259	708.491
694.592	705.043
694.925	701.621
695.259	698.224
695.592	694.852
695.926	691.503
696.259	688.179
696.593	684.878
696.926	681.601
697.260	678.347
697.593	675.117
697.926	671.908
698.260	668.722
698.593	665.559
698.927	662.416
699.260	659.296
699.594	656.196
699.927	653.117
700.260	650.059
700.594	647.021
700.927	644.002
701.261	641.004
701.594	638.024
701.928	635.063
702.261	632.120
702.594	629.196
702.928	626.289
703.261	623.400
703.595	620.528
703.928	617.672
704.262	614.833
704.595	612.010
704.928	609.202
705.262	606.410
705.595	603.633
705.929	600.870
706.262	598.122
706.596	595.387
706.929	592.666
707.262	589.958
707.596	587.262
707.929	584.579
708.263	581.908
708.596	579.249
708.930	576.601
709.263	573.965
709.596	571.338
709.930	568.723
710.263	566.117
710.597	563.520
710.930	560.933
711.264	558.355
711.597	555.786
711.931	553.225
712.264	550.671
712.597	548.126
712.931	545.587
713.264	543.056
713.598	540.531
713.931	538.013
714.265	535.501
714.598	532.994
714.931	530.493
715.265	527.998
715.598	525.507
715.932	523.021
716.265	520.539
716.599	518.061
716.932	515.587
717.265	513.117
717.599	510.650
717.932	508.186
718.266	505.725
718.599	503.266
718.933	500.810
719.266	498.356
719.599	495.904
719.933	493.454
720.266	491.005
720.600	488.558
720.933	486.112
721.267	483.667
721.600	481.222
721.933	478.779
722.267	476.335
722.600	473.893
722.934	471.450
723.267	469.007
723.601	466.564
723.934	464.121
724.267	461.678
724.601	459.234
724.934	456.789
725.268	454.344
725.601	451.898
725.935	449.452
726.268	447.004
726.602	444.555
726.935	442.105
727.268	439.654
727.602	437.202
727.935	434.748
728.269	432.294
728.602	429.838
728.936	427.380
729.269	424.921
729.602	422.461
729.936	419.999
730.269	417.536
730.603	415.071
730.936	412.605
731.270	410.138
731.603	407.669
731.936	405.199
732.270	402.727
732.603	400.254
732.937	397.780
733.270	395.305
733.604	392.828
733.937	390.350
734.270	387.872
734.604	385.392
734.937	382.911
735.271	380.430
735.604	377.948
735.938	375.465
736.271	372.981
736.604	370.497
736.938	368.013
737.271	365.528
737.605	363.043
737.938	360.558
738.272	358.073
738.605	355.588
738.938	353.103
739.272	350.619
739.605	348.135
739.939	345.652
740.272	343.169
740.606	340.688
740.939	338.207
741.273	335.728
741.606	333.250
741.939	330.774
742.273	328.299
742.606	325.826
742.940	323.355
743.273	320.886
743.607	318.419
743.940	315.954
744.273	313.492
744.607	311.033
744.940	308.577
745.274	306.124
745.607	303.674
745.941	301.227
746.274	298.784
746.607	296.345
746.941	293.909
747.274	291.478
747.608	289.050
747.941	286.628
748.275	284.209
748.608	281.796
748.941	279.387
749.275	276.984
749.608	274.586
749.942	272.193
750.275	269.806
750.609	267.425
750.942	265.049
751.275	262.680
751.609	260.317
751.942	257.961
752.276	255.611
752.609	253.268
752.943	250.932
753.276	248.603
753.609	246.282
753.943	243.968
754.276	241.661
754.610	239.363
754.943	237.072
755.277	234.790
755.610	232.515
755.944	230.250
756.277	227.993
756.610	225.744
756.944	223.505
757.277	221.274
757.611	219.053
757.944	216.841
758.278	214.639
758.611	212.447
758.944	210.264
759.278	208.091
759.611	205.928
759.945	203.775
760.278	201.633
760.612	199.501
760.945	197.380
761.278	195.269
761.612	193.169
761.945	191.081
762.279	189.003
762.612	186.937
762.946	184.881
763.279	182.838
763.612	180.805
763.946	178.785
764.279	176.776
764.613	174.779
764.946	172.794
765.280	170.821
765.613	168.860
765.946	166.911
766.280	164.975
766.613	163.051
766.947	161.140
767.280	159.241
767.614	157.354
767.947	155.481
768.280	153.620
768.614	151.772
768.947	149.937
769.281	148.115
769.614	146.306
769.948	144.510
770.281	142.727
770.615	140.958
770.948	139.201
771.281	137.458
771.615	135.728
771.948	134.012
772.282	132.309
772.615	130.620
772.949	128.944
773.282	127.281
773.615	125.633
773.949	123.997
774.282	122.376
774.616	120.768
774.949	119.173
775.283	117.592
775.616	116.025
775.949	114.472
776.283	112.932
776.616	111.406
776.950	109.894
777.283	108.395
777.617	106.910
777.950	105.439
778.283	103.981
778.617	102.537
778.950	101.107
779.284	99.690
779.617	98.287
779.951	96.898
780.284	95.522
780.617	94.160
780.951	92.811
781.284	91.476
781.618	90.155
781.951	88.846
782.285	87.552
782.618	86.270
782.951	85.002
783.285	83.748
783.618	82.506
783.952	81.278
784.285	80.063
784.619	78.862
784.952	77.673
785.286	76.497
785.619	75.335
785.952	74.185
786.286	73.048
786.619	71.924
786.953	70.813
787.286	69.715
787.620	68.629
787.953	67.556
788.286	66.496
788.620	65.447
788.953	64.412
789.287	63.388
789.620	62.377
789.954	61.379
790.287	60.392
790.620	59.417
790.954	58.455
791.287	57.504
791.621	56.565
791.954	55.638
792.288	54.723
792.621	53.819
792.954	52.927
793.288	52.047
793.621	51.177
793.955	50.319
794.288	49.473
794.622	48.637
794.955	47.813
795.288	46.999
795.622	46.196
795.955	45.404
796.289	44.623
796.622	43.853
796.956	43.093
797.289	42.343
797.623	41.604
797.956	40.876
798.289	40.157
798.623	39.448
798.956	38.750
799.290	38.062
799.623	37.383
799.957	36.714
800.290	36.055
800.623	35.405
800.957	34.765
801.290	34.134
801.624	33.513
801.957	32.900
802.291	32.297
802.624	31.703
802.957	31.118
803.291	30.541
803.624	29.974
803.958	29.415
804.291	28.865
804.625	28.323
804.958	27.789
805.291	27.264
805.625	26.747
805.958	26.238
806.292	25.738
806.625	25.245
806.959	24.760
807.292	24.283
807.625	23.813
807.959	23.351
808.292	22.897
808.626	22.450
808.959	22.010
809.293	21.578
809.626	21.152
809.959	20.734
810.293	20.323
810.626	19.918
810.960	19.521
811.293	19.130
811.627	18.745
811.960	18.368
812.294	17.996
812.627	17.631
812.960	17.273
813.294	16.920
813.627	16.574
813.961	16.234
814.294	15.900
814.628	15.571
814.961	15.249
815.294	14.932
815.628	14.621
815.961	14.315
816.295	14.015
816.628	13.720
816.962	13.431
817.295	13.147
817.628	12.868
817.962	12.594
818.295	12.325
818.629	12.061
818.962	11.803
819.296	11.548
819.629	11.299
819.962	11.054
820.296	10.814
820.629	10.579
820.963	10.348
821.296	10.121
821.630	9.899
821.963	9.681
822.296	9.467
822.630	9.257
822.963	9.051
823.297	8.850
823.630	8.652
823.964	8.458
824.297	8.268
824.630	8.082
824.964	7.899
825.297	7.720
825.631	7.545
825.964	7.373
826.298	7.205
826.631	7.040
826.965	6.878
827.298	6.719
827.631	6.564
827.965	6.412
828.298	6.263
828.632	6.118
828.965	5.975
829.299	5.835
829.632	5.698
829.965	5.564
830.299	5.433
830.632	5.304
830.966	5.178
831.299	5.055
831.633	4.935
831.966	4.817
832.299	4.701
832.633	4.588
832.966	4.478
833.300	4.370
833.633	4.264
833.967	4.160
834.300	4.059
834.633	3.960
834.967	3.863
835.300	3.768
835.634	3.676
835.967	3.585
836.301	3.496
836.634	3.410
836.967	3.325
837.301	3.242
837.634	3.161
837.968	3.082
838.301	3.005
838.635	2.929
838.968	2.855
839.301	2.783
839.635	2.713
839.968	2.644
840.302	2.576
840.635	2.511
840.969	2.446
841.302	2.384
841.636	2.322
841.969	2.262
842.302	2.204
842.636	2.147
842.969	2.091
843.303	2.037
843.636	1.984
843.970	1.932
844.303	1.881
844.636	1.832
844.970	1.783
845.303	1.736
845.637	1.690
845.970	1.646
846.304	1.602
846.637	1.559
846.970	1.517
847.304	1.477
847.637	1.437
847.971	1.399
848.304	1.361
848.638	1.324
848.971	1.288
849.304	1.253
849.638	1.219
849.971	1.186
850.305	1.153
850.638	1.122
850.972	1.091
851.305	1.061
851.638	1.032
851.972	1.003
852.305	0.975
852.639	0.948
852.972	0.922
853.306	0.896
853.639	0.871
853.972	0.847
854.306	0.823
854.639	0.800
854.973	0.777
855.306	0.755
855.640	0.734
855.973	0.713
856.307	0.693
856.640	0.673
856.973	0.654
857.307	0.635
857.640	0.617
857.974	0.599
858.307	0.582
858.641	0.565
858.974	0.549
859.307	0.533
859.641	0.517
859.974	0.502
860.308	0.488
860.641	0.473
860.975	0.459
861.308	0.446
861.641	0.433
861.975	0.420
862.308	0.408
862.642	0.395
862.975	0.384
863.309	0.372
863.642	0.361
863.975	0.350
864.309	0.340
864.642	0.330
864.976	0.320
865.309	0.310
865.643	0.301
865.976	0.292
866.309	0.283
866.643	0.274
866.976	0.266
867.310	0.258
867.643	0.250
867.977	0.242
868.310	0.235
868.643	0.228
868.977	0.221
869.310	0.214
869.644	0.207
869.977	0.201
870.311	0.195
870.644	0.188
870.978	0.183
871.311	0.177
871.644	0.171
871.978	0.166
872.311	0.161
872.645	0.156
872.978	0.151
873.312	0.146
873.645	0.141
873.978	0.137
874.312	0.133
874.645	0.128
874.979	0.124
875.312	0.120
875.646	0.116
875.979	0.113
876.312	0.109
876.646	0.106
876.979	0.102
877.313	0.099
877.646	0.096
877.980	0.092
878.313	0.089
878.646	0.087
878.980	0.084
879.313	0.081
879.647	0.078
879.980	0.076
880.314	0.073
880.647	0.071
880.980	0.069
881.314	0.066
881.647	0.064
881.981	0.062
882.314	0.060
882.648	0.058
882.981	0.056
883.314	0.054
883.648	0.052
883.981	0.050
884.315	0.049
884.648	0.047
884.982	0.046
885.315	0.044
885.649	0.043
885.982	0.041
886.315	0.040
886.649	0.038
886.982	0.037
887.316	0.036
887.649	0.035
887.983	0.033
888.316	0.032
888.649	0.031
888.983	0.030
889.316	0.029
889.650	0.028
889.983	0.027
890.317	0.026
890.650	0.025
890.983	0.024
891.317	0.023
891.650	0.023
891.984	0.022
892.317	0.021
892.651	0.020
892.984	0.020
893.317	0.019
893.651	0.018
893.984	0.018
894.318	0.017
894.651	0.016
894.985	0.016
895.318	0.015
895.651	0.015
895.985	0.014
896.318	0.014
896.652	0.013
896.985	0.013
897.319	0.012
897.652	0.012
897.985	0.011
898.319	0.011
898.652	0.011
898.986	0.010
899.319	0.010
899.653	0.009
899.986	0.009
900.320	0.009
900.653	0.008
900.986	0.008
901.320	0.008
901.653	0.008
901.987	0.007
902.320	0.007
902.654	0.007
902.987	0.006
903.320	0.006
903.654	0.006
903.987	0.006
904.321	0.006
904.654	0.005
904.988	0.005
905.321	0.005
905.654	0.005
905.988	0.005
906.321	0.004
906.655	0.004
906.988	0.004
907.322	0.004
907.655	0.004
907.988	0.004
908.322	0.004
908.655	0.003
908.989	0.003
909.322	0.003
909.656	0.003
909.989	0.003
910.322	0.003
910.656	0.003
910.989	0.003
911.323	0.002
911.656	0.002
911.990	0.002
912.323	0.002
912.656	0.002
912.990	0.002
913.323	0.002
913.657	0.002
913.990	0.002
914.324	0.002
914.657	0.002
914.991	0.002
915.324	0.002
915.657	0.001
915.991	0.001
916.324	0.001
916.658	0.001
916.991	0.001
917.325	0.001
917.658	0.001
917.991	0.001
918.325	0.001
918.658	0.001
918.992	0.001
919.325	0.001
919.659	0.001
919.992	0.001
920.325	0.001
920.659	0.001
920.992	0.001
921.326	0.001
921.659	0.001
921.993	0.001
922.326	0.001
922.659	0.001
922.993	0.001
923.326	0.001
923.660	0.001
923.993	0.001
924.327	0.001
924.660	0.000
924.993	0.000
925.327	0.000
925.660	0.000
925.994	0.000
926.327	0.000
926.661	0.000
926.994	0.000
927.327	0.000
927.661	0.000
927.994	0.000
928.328	0.000
928.661	0.000
928.995	0.000
929.328	0.000
929.662	0.000
929.995	0.000
930.328	0.000
930.662	0.000
930.995	0.000
931.329	0.000
931.662	0.000
931.996	0.000
932.329	0.000
932.662	0.000
932.996	0.000
933.329	0.000
933.663	0.000
933.996	0.000
934.330	0.000
934.663	0.000
934.996	0.000
935.330	0.000
935.663	0.000
935.997	0.000
936.330	0.000
936.664	0.000
936.997	0.000
937.330	0.000
937.664	0.000
937.997	0.000
938.331	0.000
938.664	0.000
938.998	0.000
939.331	0.000
939.664	0.000
939.998	0.000
940.331	0.000
940.665	0.000
940.998	0.000
941.332	0.000
941.665	0.000
941.998	0.000
942.332	0.000
942.665	0.000
942.999	0.000
943.332	0.000
943.666	0.000
943.999	0.000
944.333	0.000
944.666	0.000
944.999	0.000
945.333	0.000
945.666	0.000
946.000	0.000
946.333	0.000
946.667	0.000
947.000	0.000
947.333	0.000
947.667	0.000
948.000	0.000
948.334	0.000
948.667	0.000
949.001	0.000
949.334	0.000
949.667	0.000
950.001	0.000
950.334	0.000
950.668	0.000
951.001	0.000
951.335	0.000
951.668	0.000
952.001	0.000
952.335	0.000
952.668	0.000
953.002	0.000
953.335	0.000
953.669	0.000
954.002	0.000
954.335	0.000
954.669	0.000
955.002	0.000
955.336	0.000
955.669	0.000
956.003	0.000
956.336	0.000
956.669	0.000
957.003	0.000
957.336	0.000
957.670	0.000
958.003	0.000
958.337	0.000
958.670	0.000
959.004	0.000
959.337	0.000
959.670	0.000
960.004	0.000
960.337	0.000
960.671	0.000
961.004	0.000
961.338	0.000
961.671	0.000
962.004	0.000
962.338	0.000
962.671	0.000
963.005	0.000
963.338	0.000
963.672	0.000
964.005	0.000
964.338	0.000
964.672	0.000
965.005	0.000
965.339	0.000
965.672	0.000
966.006	0.000
966.339	0.000
966.672	0.000
967.006	0.000
967.339	0.000
967.673	0.000
968.006	0.000
968.340	0.000
968.673	0.000
969.006	0.000
969.340	0.000
969.673	0.000
970.007	0.000
970.340	0.000
970.674	0.000
971.007	0.000
971.340	0.000
971.674	0.000
972.007	0.000
972.341	0.000
972.674	0.000
973.008	0.000
973.341	0.000
973.675	0.000
974.008	0.000
974.341	0.000
974.675	0.000
975.008	0.000
975.342	0.000
975.675	0.000
976.009	0.000
976.342	0.000
976.675	0.000
977.009	0.000
977.342	0.000
977.676	0.000
978.009	0.000
978.343	0.000
978.676	0.000
979.009	0.000
979.343	0.000
979.676	0.000
980.010	0.000
980.343	0.000
980.677	0.000
981.010	0.000
981.343	0.000
981.677	0.000
982.010	0.000
982.344	0.000
982.677	0.000
983.011	0.000
983.344	0.000
983.677	0.000
984.011	0.000
984.344	0.000
984.678	0.000
985.011	0.000
985.345	0.000
985.678	0.000
986.011	0.000
986.345	0.000
986.678	0.000
987.012	0.000
987.345	0.000
987.679	0.000
988.012	0.000
988.346	0.000
988.679	0.000
989.012	0.000
989.346	0.000
989.679	0.000
990.013	0.000
990.346	0.000
990.680	0.000
991.013	0.000
991.346	0.000
991.680	0.000
992.013	0.000
992.347	0.000
992.680	0.000
993.014	0.000
993.347	0.000
993.680	0.000
994.014	0.000
994.347	0.000
994.681	0.000
995.014	0.000
995.348	0.000
995.681	0.000
996.014	0.000
996.348	0.000
996.681	0.000
997.015	0.000
997.348	0.000
997.682	0.000
998.015	0.000
998.348	0.000
998.682	0.000
999.015	0.000
999.349	0.000
999.682	0.000
1000.016	0.000
1000.349	0.000
1000.682	0.000
1001.016	0.000
1001.349	0.000
1001.683	0.000
1002.016	0.000
1002.350	0.000
1002.683	0.000
1003.017	0.000
1003.350	0.000
1003.683	0.000
1004.017	0.000
1004.350	0.000
1004.684	0.000
1005.017	0.000
1005.351	0.000
1005.684	0.000
1006.017	0.000
1006.351	0.000
1006.684	0.000
1007.018	0.000
1007.351	0.000
1007.685	0.000
1008.018	0.000
1008.351	0.000
1008.685	0.000
1009.018	0.000
1009.352	0.000
1009.685	0.000
1010.019	0.000
1010.352	0.000
1010.685	0.000
1011.019	0.000
1011.352	0.000
1011.686	0.000
1012.019	0.000
1012.353	0.000
1012.686	0.000
1013.019	0.000
1013.353	0.000
1013.686	0.000
1014.020	0.000
1014.353	0.000
1014.687	0.000
1015.020	0.000
1015.353	0.000
1015.687	0.000
1016.020	0.000
1016.354	0.000
1016.687	0.000
1017.021	0.000
1017.354	0.000
1017.688	0.000
1018.021	0.000
1018.354	0.000
1018.688	0.000
1019.021	0.000
1019.355	0.000
1019.688	0.000
1020.022	0.000
1020.355	0.000
1020.688	0.000
1021.022	0.000
1021.355	0.000
1021.689	0.000
1022.022	0.000
1022.356	0.000
1022.689	0.000
