Data from repetition_0.txt_16-47-09-365.txt Node
Date: Sun Jun 13 23:27:09 CET 2021
User: fcossio
Spectrometer: FLMS15016
Trigger mode: 0
Integration Time (sec): 3.000000E-1Scans to average: 1
Electric dark correction enabled: true
Nonlinearity correction enabled: false
Boxcar width: 0
XAxis mode: Wavelengths
Number of Pixels in Spectrum: 2048
>>>>>Begin Spectral Data<<<<<
340.154	0.000
340.487	0.000
340.821	0.000
341.154	0.000
341.488	0.000
341.821	0.000
342.155	0.000
342.488	0.000
342.821	0.000
343.155	0.000
343.488	0.000
343.822	0.000
344.155	0.000
344.489	0.000
344.822	0.000
345.155	0.000
345.489	0.000
345.822	0.000
346.156	0.000
346.489	0.000
346.823	0.000
347.156	0.000
347.490	0.000
347.823	0.000
348.156	0.000
348.490	0.000
348.823	0.000
349.157	0.000
349.490	0.000
349.824	0.000
350.157	0.000
350.490	0.000
350.824	0.000
351.157	0.000
351.491	0.000
351.824	0.000
352.158	0.000
352.491	0.000
352.824	0.000
353.158	0.000
353.491	0.000
353.825	0.000
354.158	0.000
354.492	0.000
354.825	0.000
355.158	0.000
355.492	0.000
355.825	0.000
356.159	0.000
356.492	0.000
356.826	0.000
357.159	0.000
357.492	0.000
357.826	0.000
358.159	0.000
358.493	0.000
358.826	0.000
359.160	0.000
359.493	0.000
359.826	0.000
360.160	0.000
360.493	0.000
360.827	0.000
361.160	0.000
361.494	0.000
361.827	0.000
362.161	0.000
362.494	0.000
362.827	0.000
363.161	0.000
363.494	0.000
363.828	0.000
364.161	0.000
364.495	0.000
364.828	0.000
365.161	0.001
365.495	0.001
365.828	0.001
366.162	0.001
366.495	0.001
366.829	0.001
367.162	0.001
367.495	0.001
367.829	0.001
368.162	0.001
368.496	0.001
368.829	0.001
369.163	0.001
369.496	0.001
369.829	0.001
370.163	0.001
370.496	0.001
370.830	0.001
371.163	0.001
371.497	0.001
371.830	0.001
372.163	0.001
372.497	0.001
372.830	0.002
373.164	0.002
373.497	0.002
373.831	0.002
374.164	0.002
374.497	0.002
374.831	0.002
375.164	0.002
375.498	0.002
375.831	0.002
376.165	0.002
376.498	0.003
376.832	0.003
377.165	0.003
377.498	0.003
377.832	0.003
378.165	0.003
378.499	0.003
378.832	0.003
379.166	0.004
379.499	0.004
379.832	0.004
380.166	0.004
380.499	0.004
380.833	0.005
381.166	0.005
381.500	0.005
381.833	0.005
382.166	0.005
382.500	0.006
382.833	0.006
383.167	0.006
383.500	0.006
383.834	0.007
384.167	0.007
384.500	0.007
384.834	0.008
385.167	0.008
385.501	0.008
385.834	0.009
386.168	0.009
386.501	0.010
386.834	0.010
387.168	0.010
387.501	0.011
387.835	0.011
388.168	0.012
388.502	0.012
388.835	0.013
389.168	0.014
389.502	0.014
389.835	0.015
390.169	0.015
390.502	0.016
390.836	0.017
391.169	0.018
391.503	0.018
391.836	0.019
392.169	0.020
392.503	0.021
392.836	0.022
393.170	0.023
393.503	0.023
393.837	0.024
394.170	0.026
394.503	0.027
394.837	0.028
395.170	0.029
395.504	0.030
395.837	0.031
396.171	0.033
396.504	0.034
396.837	0.036
397.171	0.037
397.504	0.039
397.838	0.040
398.171	0.042
398.505	0.044
398.838	0.045
399.171	0.047
399.505	0.049
399.838	0.051
400.172	0.053
400.505	0.055
400.839	0.058
401.172	0.060
401.505	0.062
401.839	0.065
402.172	0.068
402.506	0.070
402.839	0.073
403.173	0.076
403.506	0.079
403.839	0.082
404.173	0.086
404.506	0.089
404.840	0.093
405.173	0.096
405.507	0.100
405.840	0.104
406.174	0.108
406.507	0.113
406.840	0.117
407.174	0.122
407.507	0.126
407.841	0.131
408.174	0.136
408.508	0.142
408.841	0.147
409.174	0.153
409.508	0.159
409.841	0.165
410.175	0.171
410.508	0.178
410.842	0.185
411.175	0.192
411.508	0.199
411.842	0.207
412.175	0.215
412.509	0.223
412.842	0.231
413.176	0.240
413.509	0.249
413.842	0.258
414.176	0.268
414.509	0.278
414.843	0.289
415.176	0.299
415.510	0.310
415.843	0.322
416.176	0.334
416.510	0.346
416.843	0.359
417.177	0.372
417.510	0.386
417.844	0.400
418.177	0.415
418.510	0.430
418.844	0.445
419.177	0.462
419.511	0.478
419.844	0.496
420.178	0.514
420.511	0.532
420.845	0.551
421.178	0.571
421.511	0.591
421.845	0.612
422.178	0.634
422.512	0.657
422.845	0.680
423.179	0.704
423.512	0.729
423.845	0.754
424.179	0.781
424.512	0.808
424.846	0.836
425.179	0.866
425.513	0.896
425.846	0.927
426.179	0.959
426.513	0.992
426.846	1.026
427.180	1.061
427.513	1.098
427.847	1.135
428.180	1.174
428.513	1.214
428.847	1.255
429.180	1.298
429.514	1.341
429.847	1.387
430.181	1.433
430.514	1.481
430.847	1.531
431.181	1.582
431.514	1.635
431.848	1.689
432.181	1.745
432.515	1.802
432.848	1.862
433.181	1.923
433.515	1.986
433.848	2.051
434.182	2.118
434.515	2.187
434.849	2.258
435.182	2.331
435.516	2.406
435.849	2.484
436.182	2.564
436.516	2.646
436.849	2.731
437.183	2.818
437.516	2.907
437.850	3.000
438.183	3.095
438.516	3.192
438.850	3.293
439.183	3.396
439.517	3.503
439.850	3.612
440.184	3.725
440.517	3.840
440.850	3.959
441.184	4.082
441.517	4.208
441.851	4.337
442.184	4.470
442.518	4.607
442.851	4.747
443.184	4.892
443.518	5.040
443.851	5.193
444.185	5.350
444.518	5.511
444.852	5.676
445.185	5.846
445.518	6.020
445.852	6.200
446.185	6.384
446.519	6.573
446.852	6.767
447.186	6.966
447.519	7.171
447.852	7.381
448.186	7.596
448.519	7.818
448.853	8.045
449.186	8.278
449.520	8.517
449.853	8.762
450.187	9.014
450.520	9.272
450.853	9.536
451.187	9.808
451.520	10.086
451.854	10.372
452.187	10.665
452.521	10.965
452.854	11.273
453.187	11.588
453.521	11.912
453.854	12.243
454.188	12.583
454.521	12.931
454.855	13.287
455.188	13.652
455.521	14.027
455.855	14.410
456.188	14.803
456.522	15.205
456.855	15.617
457.189	16.039
457.522	16.471
457.855	16.913
458.189	17.365
458.522	17.829
458.856	18.303
459.189	18.788
459.523	19.285
459.856	19.794
460.189	20.314
460.523	20.846
460.856	21.390
461.190	21.947
461.523	22.517
461.857	23.099
462.190	23.695
462.523	24.304
462.857	24.927
463.190	25.563
463.524	26.214
463.857	26.880
464.191	27.560
464.524	28.255
464.858	28.965
465.191	29.691
465.524	30.433
465.858	31.191
466.191	31.965
466.525	32.755
466.858	33.563
467.192	34.387
467.525	35.230
467.858	36.090
468.192	36.968
468.525	37.864
468.859	38.779
469.192	39.713
469.526	40.666
469.859	41.639
470.192	42.632
470.526	43.645
470.859	44.679
471.193	45.733
471.526	46.809
471.860	47.906
472.193	49.025
472.526	50.166
472.860	51.329
473.193	52.516
473.527	53.725
473.860	54.958
474.194	56.215
474.527	57.496
474.860	58.802
475.194	60.133
475.527	61.488
475.861	62.870
476.194	64.277
476.528	65.711
476.861	67.171
477.194	68.658
477.528	70.173
477.861	71.716
478.195	73.286
478.528	74.885
478.862	76.513
479.195	78.170
479.529	79.857
479.862	81.573
480.195	83.320
480.529	85.098
480.862	86.906
481.196	88.746
481.529	90.618
481.863	92.522
482.196	94.458
482.529	96.428
482.863	98.431
483.196	100.467
483.530	102.537
483.863	104.642
484.197	106.781
484.530	108.956
484.863	111.166
485.197	113.412
485.530	115.694
485.864	118.013
486.197	120.368
486.531	122.761
486.864	125.192
487.197	127.660
487.531	130.168
487.864	132.713
488.198	135.298
488.531	137.922
488.865	140.587
489.198	143.291
489.531	146.035
489.865	148.821
490.198	151.648
490.532	154.516
490.865	157.425
491.199	160.377
491.532	163.372
491.865	166.409
492.199	169.489
492.532	172.613
492.866	175.780
493.199	178.991
493.533	182.247
493.866	185.547
494.200	188.892
494.533	192.282
494.866	195.717
495.200	199.198
495.533	202.725
495.867	206.298
496.200	209.917
496.534	213.583
496.867	217.296
497.200	221.056
497.534	224.863
497.867	228.718
498.201	232.620
498.534	236.570
498.868	240.568
499.201	244.615
499.534	248.710
499.868	252.854
500.201	257.046
500.535	261.287
500.868	265.577
501.202	269.917
501.535	274.305
501.868	278.743
502.202	283.231
502.535	287.768
502.869	292.354
503.202	296.990
503.536	301.676
503.869	306.412
504.202	311.197
504.536	316.033
504.869	320.918
505.203	325.853
505.536	330.837
505.870	335.872
506.203	340.956
506.536	346.090
506.870	351.274
507.203	356.507
507.537	361.790
507.870	367.122
508.204	372.503
508.537	377.933
508.871	383.413
509.204	388.941
509.537	394.518
509.871	400.143
510.204	405.817
510.538	411.538
510.871	417.308
511.205	423.125
511.538	428.990
511.871	434.902
512.205	440.861
512.538	446.866
512.872	452.918
513.205	459.015
513.539	465.159
513.872	471.347
514.205	477.581
514.539	483.859
514.872	490.181
515.206	496.547
515.539	502.956
515.873	509.408
516.206	515.903
516.539	522.439
516.873	529.018
517.206	535.637
517.540	542.297
517.873	548.997
518.207	555.736
518.540	562.515
518.873	569.331
519.207	576.186
519.540	583.078
519.874	590.006
520.207	596.971
520.541	603.971
520.874	611.006
521.207	618.075
521.541	625.177
521.874	632.312
522.208	639.480
522.541	646.679
522.875	653.908
523.208	661.168
523.542	668.456
523.875	675.773
524.208	683.118
524.542	690.490
524.875	697.889
525.209	705.312
525.542	712.761
525.876	720.233
526.209	727.728
526.542	735.247
526.876	742.791
527.209	750.367
527.543	757.998
527.876	765.746
528.210	773.771
528.543	782.468
528.876	792.741
529.210	806.539
529.543	827.822
529.877	864.112
530.210	928.779
530.544	1043.937
530.877	1243.438
531.210	1574.802
531.544	2098.314
531.877	2881.209
532.211	3985.414
532.544	5449.035
532.878	7264.550
533.211	9359.697
533.544	11588.882
533.878	13742.024
534.211	15573.475
534.545	16846.909
534.878	17385.298
535.212	17111.505
535.545	16066.673
535.878	14400.365
536.212	12335.720
536.545	10120.798
536.879	7980.697
537.212	6082.894
537.546	4522.171
537.879	3324.413
538.213	2463.311
538.546	1882.103
538.879	1513.567
539.213	1294.361
539.546	1172.716
539.880	1110.657
540.213	1082.726
540.547	1073.172
540.880	1072.933
541.213	1077.144
541.547	1083.358
541.880	1090.419
542.214	1097.813
542.547	1105.323
542.881	1112.865
543.214	1120.406
543.547	1127.935
543.881	1135.447
544.214	1142.942
544.548	1150.417
544.881	1157.874
545.215	1165.311
545.548	1172.729
545.881	1180.126
546.215	1187.504
546.548	1194.861
546.882	1202.198
547.215	1209.514
547.549	1216.810
547.882	1224.086
548.215	1231.341
548.549	1238.576
548.882	1245.790
549.216	1252.984
549.549	1260.158
549.883	1267.313
550.216	1274.448
550.549	1281.564
550.883	1288.661
551.216	1295.740
551.550	1302.801
551.883	1309.845
552.217	1316.872
552.550	1323.882
552.884	1330.877
553.217	1337.857
553.550	1344.823
553.884	1351.775
554.217	1358.715
554.551	1365.643
554.884	1372.560
555.218	1379.468
555.551	1386.366
555.884	1393.257
556.218	1400.141
556.551	1407.019
556.885	1413.893
557.218	1420.764
557.552	1427.633
557.885	1434.501
558.218	1441.370
558.552	1448.242
558.885	1455.117
559.219	1461.997
559.552	1468.885
559.886	1475.780
560.219	1482.685
560.552	1489.602
560.886	1496.532
561.219	1503.477
561.553	1510.439
561.886	1517.420
562.220	1524.420
562.553	1531.443
562.886	1538.490
563.220	1545.563
563.553	1552.664
563.887	1559.795
564.220	1566.958
564.554	1574.154
564.887	1581.386
565.220	1588.656
565.554	1595.966
565.887	1603.318
566.221	1610.714
566.554	1618.156
566.888	1625.647
567.221	1633.187
567.555	1640.780
567.888	1648.427
568.221	1656.130
568.555	1663.892
568.888	1671.715
569.222	1679.599
569.555	1687.549
569.889	1695.565
570.222	1703.649
570.555	1711.803
570.889	1720.030
571.222	1728.331
571.556	1736.708
571.889	1745.163
572.223	1753.697
572.556	1762.312
572.889	1771.011
573.223	1779.793
573.556	1788.662
573.890	1797.618
574.223	1806.662
574.557	1815.798
574.890	1825.024
575.223	1834.343
575.557	1843.756
575.890	1853.264
576.224	1862.868
576.557	1872.569
576.891	1882.367
577.224	1892.263
577.557	1902.259
577.891	1912.353
578.224	1922.548
578.558	1932.842
578.891	1943.237
579.225	1953.733
579.558	1964.328
579.892	1975.024
580.225	1985.820
580.558	1996.715
580.892	2007.710
581.225	2018.803
581.559	2029.994
581.892	2041.282
582.226	2052.665
582.559	2064.144
582.892	2075.716
583.226	2087.380
583.559	2099.134
583.893	2110.977
584.226	2122.907
584.560	2134.923
584.893	2147.021
585.226	2159.200
585.560	2171.457
585.893	2183.790
586.227	2196.197
586.560	2208.673
586.894	2221.217
587.227	2233.825
587.560	2246.494
587.894	2259.221
588.227	2272.001
588.561	2284.832
588.894	2297.710
589.228	2310.631
589.561	2323.590
589.894	2336.583
590.228	2349.606
590.561	2362.655
590.895	2375.725
591.228	2388.812
591.562	2401.909
591.895	2415.014
592.228	2428.119
592.562	2441.221
592.895	2454.314
593.229	2467.392
593.562	2480.451
593.896	2493.483
594.229	2506.485
594.563	2519.449
594.896	2532.371
595.229	2545.243
595.563	2558.061
595.896	2570.818
596.230	2583.508
596.563	2596.124
596.897	2608.661
597.230	2621.112
597.563	2633.471
597.897	2645.731
598.230	2657.886
598.564	2669.930
598.897	2681.855
599.231	2693.656
599.564	2705.326
599.897	2716.859
600.231	2728.247
600.564	2739.485
600.898	2750.566
601.231	2761.484
601.565	2772.232
601.898	2782.804
602.231	2793.193
602.565	2803.394
602.898	2813.399
603.232	2823.203
603.565	2832.801
603.899	2842.184
604.232	2851.349
604.565	2860.288
604.899	2868.997
605.232	2877.469
605.566	2885.699
605.899	2893.682
606.233	2901.412
606.566	2908.883
606.899	2916.092
607.233	2923.033
607.566	2929.700
607.900	2936.090
608.233	2942.199
608.567	2948.020
608.900	2953.552
609.234	2958.788
609.567	2963.726
609.900	2968.362
610.234	2972.693
610.567	2976.714
610.901	2980.423
611.234	2983.817
611.568	2986.894
611.901	2989.649
612.234	2992.082
612.568	2994.190
612.901	2995.971
613.235	2997.423
613.568	2998.545
613.902	2999.335
614.235	2999.793
614.568	2999.916
614.902	2999.705
615.235	2999.159
615.569	2998.277
615.902	2997.060
616.236	2995.508
616.569	2993.620
616.902	2991.398
617.236	2988.842
617.569	2985.953
617.903	2982.733
618.236	2979.182
618.570	2975.303
618.903	2971.096
619.236	2966.565
619.570	2961.710
619.903	2956.536
620.237	2951.043
620.570	2945.235
620.904	2939.115
621.237	2932.685
621.570	2925.950
621.904	2918.912
622.237	2911.576
622.571	2903.944
622.904	2896.022
623.238	2887.813
623.571	2879.321
623.905	2870.551
624.238	2861.507
624.571	2852.195
624.905	2842.618
625.238	2832.782
625.572	2822.693
625.905	2812.354
626.239	2801.772
626.572	2790.952
626.905	2779.900
627.239	2768.620
627.572	2757.119
627.906	2745.403
628.239	2733.478
628.573	2721.348
628.906	2709.022
629.239	2696.503
629.573	2683.799
629.906	2670.916
630.240	2657.860
630.573	2644.636
630.907	2631.253
631.240	2617.714
631.573	2604.028
631.907	2590.200
632.240	2576.237
632.574	2562.145
632.907	2547.929
633.241	2533.598
633.574	2519.156
633.907	2504.610
634.241	2489.966
634.574	2475.231
634.908	2460.410
635.241	2445.510
635.575	2430.537
635.908	2415.497
636.241	2400.395
636.575	2385.238
636.908	2370.032
637.242	2354.782
637.575	2339.494
637.909	2324.173
638.242	2308.825
638.576	2293.456
638.909	2278.071
639.242	2262.675
639.576	2247.273
639.909	2231.871
640.243	2216.473
640.576	2201.084
640.910	2185.709
641.243	2170.353
641.576	2155.021
641.910	2139.715
642.243	2124.442
642.577	2109.205
642.910	2094.009
643.244	2078.857
643.577	2063.753
643.910	2048.700
644.244	2033.704
644.577	2018.767
644.911	2003.892
645.244	1989.083
645.578	1974.343
645.911	1959.674
646.244	1945.081
646.578	1930.566
646.911	1916.130
647.245	1901.778
647.578	1887.511
647.912	1873.332
648.245	1859.243
648.578	1845.245
648.912	1831.342
649.245	1817.535
649.579	1803.825
649.912	1790.215
650.246	1776.705
650.579	1763.297
650.912	1749.994
651.246	1736.795
651.579	1723.701
651.913	1710.715
652.246	1697.837
652.580	1685.068
652.913	1672.408
653.247	1659.858
653.580	1647.419
653.913	1635.091
654.247	1622.874
654.580	1610.770
654.914	1598.778
655.247	1586.898
655.581	1575.130
655.914	1563.475
656.247	1551.932
656.581	1540.501
656.914	1529.182
657.248	1517.976
657.581	1506.880
657.915	1495.896
658.248	1485.022
658.581	1474.259
658.915	1463.605
659.248	1453.061
659.582	1442.625
659.915	1432.297
660.249	1422.076
660.582	1411.962
660.915	1401.953
661.249	1392.049
661.582	1382.249
661.916	1372.553
662.249	1362.959
662.583	1353.466
662.916	1344.073
663.249	1334.780
663.583	1325.586
663.916	1316.489
664.250	1307.489
664.583	1298.584
664.917	1289.773
665.250	1281.056
665.583	1272.432
665.917	1263.898
666.250	1255.455
666.584	1247.101
666.917	1238.835
667.251	1230.656
667.584	1222.563
667.918	1214.555
668.251	1206.631
668.584	1198.789
668.918	1191.029
669.251	1183.349
669.585	1175.749
669.918	1168.227
670.252	1160.783
670.585	1153.415
670.918	1146.122
671.252	1138.903
671.585	1131.758
671.919	1124.685
672.252	1117.684
672.586	1110.752
672.919	1103.890
673.252	1097.097
673.586	1090.370
673.919	1083.711
674.253	1077.117
674.586	1070.587
674.920	1064.122
675.253	1057.719
675.586	1051.378
675.920	1045.099
676.253	1038.880
676.587	1032.720
676.920	1026.620
677.254	1020.577
677.587	1014.591
677.920	1008.662
678.254	1002.789
678.587	996.970
678.921	991.206
679.254	985.495
679.588	979.837
679.921	974.231
680.254	968.676
680.588	963.173
680.921	957.719
681.255	952.315
681.588	946.959
681.922	941.652
682.255	936.393
682.589	931.180
682.922	926.014
683.255	920.894
683.589	915.819
683.922	910.788
684.256	905.802
684.589	900.860
684.923	895.960
685.256	891.103
685.589	886.288
685.923	881.515
686.256	876.783
686.590	872.091
686.923	867.439
687.257	862.827
687.590	858.254
687.923	853.719
688.257	849.222
688.590	844.763
688.924	840.342
689.257	835.956
689.591	831.608
689.924	827.294
690.257	823.017
690.591	818.774
690.924	814.565
691.258	810.391
691.591	806.250
691.925	802.142
692.258	798.067
692.591	794.024
692.925	790.012
693.258	786.032
693.592	782.083
693.925	778.165
694.259	774.277
694.592	770.418
694.925	766.588
695.259	762.787
695.592	759.015
695.926	755.271
696.259	751.553
696.593	747.863
696.926	744.200
697.260	740.563
697.593	736.952
697.926	733.366
698.260	729.804
698.593	726.268
698.927	722.755
699.260	719.267
699.594	715.801
699.927	712.358
700.260	708.938
700.594	705.539
700.927	702.162
701.261	698.806
701.594	695.471
701.928	692.157
702.261	688.862
702.594	685.586
702.928	682.329
703.261	679.092
703.595	675.872
703.928	672.670
704.262	669.485
704.595	666.318
704.928	663.166
705.262	660.031
705.595	656.912
705.929	653.808
706.262	650.719
706.596	647.645
706.929	644.584
707.262	641.538
707.596	638.505
707.929	635.484
708.263	632.477
708.596	629.481
708.930	626.497
709.263	623.525
709.596	620.564
709.930	617.613
710.263	614.673
710.597	611.743
710.930	608.823
711.264	605.911
711.597	603.009
711.931	600.115
712.264	597.230
712.597	594.352
712.931	591.482
713.264	588.620
713.598	585.764
713.931	582.915
714.265	580.072
714.598	577.235
714.931	574.404
715.265	571.579
715.598	568.759
715.932	565.943
716.265	563.132
716.599	560.326
716.932	557.524
717.265	554.725
717.599	551.930
717.932	549.139
718.266	546.351
718.599	543.565
718.933	540.783
719.266	538.002
719.599	535.224
719.933	532.449
720.266	529.675
720.600	526.902
720.933	524.132
721.267	521.362
721.600	518.594
721.933	515.827
722.267	513.061
722.600	510.295
722.934	507.530
723.267	504.766
723.601	502.002
723.934	499.238
724.267	496.474
724.601	493.711
724.934	490.947
725.268	488.183
725.601	485.419
725.935	482.655
726.268	479.890
726.602	477.125
726.935	474.359
727.268	471.593
727.602	468.826
727.935	466.059
728.269	463.291
728.602	460.523
728.936	457.754
729.269	454.984
729.602	452.213
729.936	449.442
730.269	446.671
730.603	443.898
730.936	441.125
731.270	438.352
731.603	435.578
731.936	432.803
732.270	430.028
732.603	427.253
732.937	424.477
733.270	421.702
733.604	418.926
733.937	416.149
734.270	413.373
734.604	410.597
734.937	407.821
735.271	405.046
735.604	402.270
735.938	399.495
736.271	396.721
736.604	393.947
736.938	391.174
737.271	388.402
737.605	385.631
737.938	382.862
738.272	380.093
738.605	377.326
738.938	374.560
739.272	371.797
739.605	369.035
739.939	366.275
740.272	363.517
740.606	360.761
740.939	358.008
741.273	355.258
741.606	352.510
741.939	349.765
742.273	347.024
742.606	344.285
742.940	341.551
743.273	338.819
743.607	336.092
743.940	333.368
744.273	330.649
744.607	327.934
744.940	325.224
745.274	322.518
745.607	319.817
745.941	317.121
746.274	314.431
746.607	311.745
746.941	309.066
747.274	306.392
747.608	303.724
747.941	301.063
748.275	298.407
748.608	295.759
748.941	293.117
749.275	290.482
749.608	287.854
749.942	285.233
750.275	282.620
750.609	280.014
750.942	277.416
751.275	274.826
751.609	272.245
751.942	269.672
752.276	267.107
752.609	264.551
752.943	262.004
753.276	259.466
753.609	256.937
753.943	254.418
754.276	251.908
754.610	249.409
754.943	246.919
755.277	244.439
755.610	241.969
755.944	239.510
756.277	237.061
756.610	234.624
756.944	232.197
757.277	229.781
757.611	227.376
757.944	224.983
758.278	222.601
758.611	220.231
758.944	217.873
759.278	215.527
759.611	213.192
759.945	210.870
760.278	208.561
760.612	206.264
760.945	203.979
761.278	201.707
761.612	199.448
761.945	197.202
762.279	194.969
762.612	192.749
762.946	190.543
763.279	188.350
763.612	186.170
763.946	184.004
764.279	181.852
764.613	179.714
764.946	177.589
765.280	175.479
765.613	173.382
765.946	171.300
766.280	169.232
766.613	167.179
766.947	165.140
767.280	163.115
767.614	161.105
767.947	159.109
768.280	157.128
768.614	155.162
768.947	153.211
769.281	151.275
769.614	149.353
769.948	147.446
770.281	145.555
770.615	143.678
770.948	141.817
771.281	139.970
771.615	138.139
771.948	136.323
772.282	134.522
772.615	132.737
772.949	130.966
773.282	129.211
773.615	127.471
773.949	125.747
774.282	124.038
774.616	122.344
774.949	120.665
775.283	119.002
775.616	117.354
775.949	115.721
776.283	114.104
776.616	112.502
776.950	110.915
777.283	109.343
777.617	107.787
777.950	106.246
778.283	104.720
778.617	103.210
778.950	101.714
779.284	100.234
779.617	98.769
779.951	97.319
780.284	95.884
780.617	94.464
780.951	93.059
781.284	91.668
781.618	90.293
781.951	88.932
782.285	87.587
782.618	86.256
782.951	84.939
783.285	83.638
783.618	82.350
783.952	81.078
784.285	79.820
784.619	78.576
784.952	77.346
785.286	76.131
785.619	74.930
785.952	73.743
786.286	72.570
786.619	71.411
786.953	70.266
787.286	69.135
787.620	68.017
787.953	66.913
788.286	65.823
788.620	64.746
788.953	63.683
789.287	62.633
789.620	61.596
789.954	60.573
790.287	59.562
790.620	58.565
790.954	57.580
791.287	56.609
791.621	55.650
791.954	54.704
792.288	53.770
792.621	52.849
792.954	51.940
793.288	51.043
793.621	50.159
793.955	49.286
794.288	48.426
794.622	47.577
794.955	46.741
795.288	45.916
795.622	45.102
795.955	44.300
796.289	43.510
796.622	42.730
796.956	41.962
797.289	41.205
797.623	40.459
797.956	39.724
798.289	39.000
798.623	38.286
798.956	37.583
799.290	36.891
799.623	36.208
799.957	35.536
800.290	34.875
800.623	34.223
800.957	33.581
801.290	32.949
801.624	32.327
801.957	31.715
802.291	31.112
802.624	30.518
802.957	29.934
803.291	29.359
803.624	28.794
803.958	28.237
804.291	27.689
804.625	27.150
804.958	26.620
805.291	26.099
805.625	25.586
805.958	25.081
806.292	24.585
806.625	24.097
806.959	23.617
807.292	23.145
807.625	22.681
807.959	22.225
808.292	21.776
808.626	21.336
808.959	20.902
809.293	20.477
809.626	20.058
809.959	19.647
810.293	19.243
810.626	18.846
810.960	18.456
811.293	18.073
811.627	17.697
811.960	17.327
812.294	16.964
812.627	16.607
812.960	16.257
813.294	15.914
813.627	15.576
813.961	15.245
814.294	14.919
814.628	14.600
814.961	14.287
815.294	13.979
815.628	13.677
815.961	13.381
816.295	13.090
816.628	12.805
816.962	12.525
817.295	12.250
817.628	11.981
817.962	11.717
818.295	11.458
818.629	11.204
818.962	10.954
819.296	10.710
819.629	10.470
819.962	10.235
820.296	10.005
820.629	9.779
820.963	9.558
821.296	9.341
821.630	9.128
821.963	8.920
822.296	8.716
822.630	8.516
822.963	8.320
823.297	8.128
823.630	7.940
823.964	7.755
824.297	7.575
824.630	7.398
824.964	7.225
825.297	7.055
825.631	6.889
825.964	6.727
826.298	6.567
826.631	6.412
826.965	6.259
827.298	6.110
827.631	5.964
827.965	5.820
828.298	5.680
828.632	5.543
828.965	5.409
829.299	5.278
829.632	5.150
829.965	5.024
830.299	4.902
830.632	4.782
830.966	4.664
831.299	4.549
831.633	4.437
831.966	4.327
832.299	4.220
832.633	4.115
832.966	4.012
833.300	3.911
833.633	3.813
833.967	3.717
834.300	3.624
834.633	3.532
834.967	3.443
835.300	3.355
835.634	3.270
835.967	3.186
836.301	3.105
836.634	3.025
836.967	2.947
837.301	2.871
837.634	2.797
837.968	2.724
838.301	2.654
838.635	2.584
838.968	2.517
839.301	2.451
839.635	2.387
839.968	2.324
840.302	2.263
840.635	2.203
840.969	2.145
841.302	2.088
841.636	2.032
841.969	1.978
842.302	1.925
842.636	1.873
842.969	1.823
843.303	1.774
843.636	1.726
843.970	1.679
844.303	1.633
844.636	1.589
844.970	1.546
845.303	1.503
845.637	1.462
845.970	1.422
846.304	1.383
846.637	1.345
846.970	1.308
847.304	1.271
847.637	1.236
847.971	1.202
848.304	1.168
848.638	1.135
848.971	1.104
849.304	1.072
849.638	1.042
849.971	1.013
850.305	0.984
850.638	0.956
850.972	0.929
851.305	0.903
851.638	0.877
851.972	0.852
852.305	0.827
852.639	0.804
852.972	0.780
853.306	0.758
853.639	0.736
853.972	0.715
854.306	0.694
854.639	0.674
854.973	0.654
855.306	0.635
855.640	0.616
855.973	0.598
856.307	0.580
856.640	0.563
856.973	0.547
857.307	0.530
857.640	0.515
857.974	0.499
858.307	0.484
858.641	0.470
858.974	0.456
859.307	0.442
859.641	0.429
859.974	0.416
860.308	0.403
860.641	0.391
860.975	0.379
861.308	0.368
861.641	0.357
861.975	0.346
862.308	0.335
862.642	0.325
862.975	0.315
863.309	0.305
863.642	0.296
863.975	0.287
864.309	0.278
864.642	0.269
864.976	0.261
865.309	0.253
865.643	0.245
865.976	0.237
866.309	0.230
866.643	0.222
866.976	0.215
867.310	0.209
867.643	0.202
867.977	0.196
868.310	0.189
868.643	0.183
868.977	0.177
869.310	0.172
869.644	0.166
869.977	0.161
870.311	0.156
870.644	0.151
870.978	0.146
871.311	0.141
871.644	0.137
871.978	0.132
872.311	0.128
872.645	0.124
872.978	0.120
873.312	0.116
873.645	0.112
873.978	0.108
874.312	0.105
874.645	0.101
874.979	0.098
875.312	0.095
875.646	0.092
875.979	0.088
876.312	0.086
876.646	0.083
876.979	0.080
877.313	0.077
877.646	0.075
877.980	0.072
878.313	0.070
878.646	0.067
878.980	0.065
879.313	0.063
879.647	0.061
879.980	0.059
880.314	0.057
880.647	0.055
880.980	0.053
881.314	0.051
881.647	0.049
881.981	0.048
882.314	0.046
882.648	0.044
882.981	0.043
883.314	0.041
883.648	0.040
883.981	0.039
884.315	0.037
884.648	0.036
884.982	0.035
885.315	0.033
885.649	0.032
885.982	0.031
886.315	0.030
886.649	0.029
886.982	0.028
887.316	0.027
887.649	0.026
887.983	0.025
888.316	0.024
888.649	0.023
888.983	0.022
889.316	0.022
889.650	0.021
889.983	0.020
890.317	0.019
890.650	0.019
890.983	0.018
891.317	0.017
891.650	0.017
891.984	0.016
892.317	0.016
892.651	0.015
892.984	0.014
893.317	0.014
893.651	0.013
893.984	0.013
894.318	0.012
894.651	0.012
894.985	0.012
895.318	0.011
895.651	0.011
895.985	0.010
896.318	0.010
896.652	0.010
896.985	0.009
897.319	0.009
897.652	0.009
897.985	0.008
898.319	0.008
898.652	0.008
898.986	0.007
899.319	0.007
899.653	0.007
899.986	0.007
900.320	0.006
900.653	0.006
900.986	0.006
901.320	0.006
901.653	0.005
901.987	0.005
902.320	0.005
902.654	0.005
902.987	0.005
903.320	0.004
903.654	0.004
903.987	0.004
904.321	0.004
904.654	0.004
904.988	0.004
905.321	0.003
905.654	0.003
905.988	0.003
906.321	0.003
906.655	0.003
906.988	0.003
907.322	0.003
907.655	0.003
907.988	0.003
908.322	0.002
908.655	0.002
908.989	0.002
909.322	0.002
909.656	0.002
909.989	0.002
910.322	0.002
910.656	0.002
910.989	0.002
911.323	0.002
911.656	0.002
911.990	0.002
912.323	0.001
912.656	0.001
912.990	0.001
913.323	0.001
913.657	0.001
913.990	0.001
914.324	0.001
914.657	0.001
914.991	0.001
915.324	0.001
915.657	0.001
915.991	0.001
916.324	0.001
916.658	0.001
916.991	0.001
917.325	0.001
917.658	0.001
917.991	0.001
918.325	0.001
918.658	0.001
918.992	0.001
919.325	0.001
919.659	0.001
919.992	0.001
920.325	0.001
920.659	0.001
920.992	0.001
921.326	0.000
921.659	0.000
921.993	0.000
922.326	0.000
922.659	0.000
922.993	0.000
923.326	0.000
923.660	0.000
923.993	0.000
924.327	0.000
924.660	0.000
924.993	0.000
925.327	0.000
925.660	0.000
925.994	0.000
926.327	0.000
926.661	0.000
926.994	0.000
927.327	0.000
927.661	0.000
927.994	0.000
928.328	0.000
928.661	0.000
928.995	0.000
929.328	0.000
929.662	0.000
929.995	0.000
930.328	0.000
930.662	0.000
930.995	0.000
931.329	0.000
931.662	0.000
931.996	0.000
932.329	0.000
932.662	0.000
932.996	0.000
933.329	0.000
933.663	0.000
933.996	0.000
934.330	0.000
934.663	0.000
934.996	0.000
935.330	0.000
935.663	0.000
935.997	0.000
936.330	0.000
936.664	0.000
936.997	0.000
937.330	0.000
937.664	0.000
937.997	0.000
938.331	0.000
938.664	0.000
938.998	0.000
939.331	0.000
939.664	0.000
939.998	0.000
940.331	0.000
940.665	0.000
940.998	0.000
941.332	0.000
941.665	0.000
941.998	0.000
942.332	0.000
942.665	0.000
942.999	0.000
943.332	0.000
943.666	0.000
943.999	0.000
944.333	0.000
944.666	0.000
944.999	0.000
945.333	0.000
945.666	0.000
946.000	0.000
946.333	0.000
946.667	0.000
947.000	0.000
947.333	0.000
947.667	0.000
948.000	0.000
948.334	0.000
948.667	0.000
949.001	0.000
949.334	0.000
949.667	0.000
950.001	0.000
950.334	0.000
950.668	0.000
951.001	0.000
951.335	0.000
951.668	0.000
952.001	0.000
952.335	0.000
952.668	0.000
953.002	0.000
953.335	0.000
953.669	0.000
954.002	0.000
954.335	0.000
954.669	0.000
955.002	0.000
955.336	0.000
955.669	0.000
956.003	0.000
956.336	0.000
956.669	0.000
957.003	0.000
957.336	0.000
957.670	0.000
958.003	0.000
958.337	0.000
958.670	0.000
959.004	0.000
959.337	0.000
959.670	0.000
960.004	0.000
960.337	0.000
960.671	0.000
961.004	0.000
961.338	0.000
961.671	0.000
962.004	0.000
962.338	0.000
962.671	0.000
963.005	0.000
963.338	0.000
963.672	0.000
964.005	0.000
964.338	0.000
964.672	0.000
965.005	0.000
965.339	0.000
965.672	0.000
966.006	0.000
966.339	0.000
966.672	0.000
967.006	0.000
967.339	0.000
967.673	0.000
968.006	0.000
968.340	0.000
968.673	0.000
969.006	0.000
969.340	0.000
969.673	0.000
970.007	0.000
970.340	0.000
970.674	0.000
971.007	0.000
971.340	0.000
971.674	0.000
972.007	0.000
972.341	0.000
972.674	0.000
973.008	0.000
973.341	0.000
973.675	0.000
974.008	0.000
974.341	0.000
974.675	0.000
975.008	0.000
975.342	0.000
975.675	0.000
976.009	0.000
976.342	0.000
976.675	0.000
977.009	0.000
977.342	0.000
977.676	0.000
978.009	0.000
978.343	0.000
978.676	0.000
979.009	0.000
979.343	0.000
979.676	0.000
980.010	0.000
980.343	0.000
980.677	0.000
981.010	0.000
981.343	0.000
981.677	0.000
982.010	0.000
982.344	0.000
982.677	0.000
983.011	0.000
983.344	0.000
983.677	0.000
984.011	0.000
984.344	0.000
984.678	0.000
985.011	0.000
985.345	0.000
985.678	0.000
986.011	0.000
986.345	0.000
986.678	0.000
987.012	0.000
987.345	0.000
987.679	0.000
988.012	0.000
988.346	0.000
988.679	0.000
989.012	0.000
989.346	0.000
989.679	0.000
990.013	0.000
990.346	0.000
990.680	0.000
991.013	0.000
991.346	0.000
991.680	0.000
992.013	0.000
992.347	0.000
992.680	0.000
993.014	0.000
993.347	0.000
993.680	0.000
994.014	0.000
994.347	0.000
994.681	0.000
995.014	0.000
995.348	0.000
995.681	0.000
996.014	0.000
996.348	0.000
996.681	0.000
997.015	0.000
997.348	0.000
997.682	0.000
998.015	0.000
998.348	0.000
998.682	0.000
999.015	0.000
999.349	0.000
999.682	0.000
1000.016	0.000
1000.349	0.000
1000.682	0.000
1001.016	0.000
1001.349	0.000
1001.683	0.000
1002.016	0.000
1002.350	0.000
1002.683	0.000
1003.017	0.000
1003.350	0.000
1003.683	0.000
1004.017	0.000
1004.350	0.000
1004.684	0.000
1005.017	0.000
1005.351	0.000
1005.684	0.000
1006.017	0.000
1006.351	0.000
1006.684	0.000
1007.018	0.000
1007.351	0.000
1007.685	0.000
1008.018	0.000
1008.351	0.000
1008.685	0.000
1009.018	0.000
1009.352	0.000
1009.685	0.000
1010.019	0.000
1010.352	0.000
1010.685	0.000
1011.019	0.000
1011.352	0.000
1011.686	0.000
1012.019	0.000
1012.353	0.000
1012.686	0.000
1013.019	0.000
1013.353	0.000
1013.686	0.000
1014.020	0.000
1014.353	0.000
1014.687	0.000
1015.020	0.000
1015.353	0.000
1015.687	0.000
1016.020	0.000
1016.354	0.000
1016.687	0.000
1017.021	0.000
1017.354	0.000
1017.688	0.000
1018.021	0.000
1018.354	0.000
1018.688	0.000
1019.021	0.000
1019.355	0.000
1019.688	0.000
1020.022	0.000
1020.355	0.000
1020.688	0.000
1021.022	0.000
1021.355	0.000
1021.689	0.000
1022.022	0.000
1022.356	0.000
1022.689	0.000
