Data from repetition_3.txt_16-47-09-365.txt Node
Date: Sun Jun 13 23:27:09 CET 2021
User: fcossio
Spectrometer: FLMS15016
Trigger mode: 0
Integration Time (sec): 3.000000E-1Scans to average: 1
Electric dark correction enabled: true
Nonlinearity correction enabled: false
Boxcar width: 0
XAxis mode: Wavelengths
Number of Pixels in Spectrum: 2048
>>>>>Begin Spectral Data<<<<<
340.154	0.000
340.487	0.000
340.821	0.000
341.154	0.000
341.488	0.000
341.821	0.000
342.155	0.000
342.488	0.000
342.821	0.000
343.155	0.000
343.488	0.000
343.822	0.000
344.155	0.000
344.489	0.000
344.822	0.000
345.155	0.000
345.489	0.000
345.822	0.000
346.156	0.000
346.489	0.000
346.823	0.000
347.156	0.000
347.490	0.000
347.823	0.000
348.156	0.000
348.490	0.000
348.823	0.000
349.157	0.000
349.490	0.000
349.824	0.000
350.157	0.000
350.490	0.000
350.824	0.000
351.157	0.000
351.491	0.000
351.824	0.000
352.158	0.000
352.491	0.000
352.824	0.000
353.158	0.000
353.491	0.000
353.825	0.000
354.158	0.000
354.492	0.000
354.825	0.000
355.158	0.000
355.492	0.000
355.825	0.000
356.159	0.000
356.492	0.000
356.826	0.000
357.159	0.000
357.492	0.000
357.826	0.000
358.159	0.000
358.493	0.000
358.826	0.000
359.160	0.000
359.493	0.000
359.826	0.001
360.160	0.001
360.493	0.001
360.827	0.001
361.160	0.001
361.494	0.001
361.827	0.001
362.161	0.001
362.494	0.001
362.827	0.001
363.161	0.001
363.494	0.001
363.828	0.001
364.161	0.001
364.495	0.001
364.828	0.001
365.161	0.001
365.495	0.001
365.828	0.001
366.162	0.001
366.495	0.001
366.829	0.001
367.162	0.001
367.495	0.002
367.829	0.002
368.162	0.002
368.496	0.002
368.829	0.002
369.163	0.002
369.496	0.002
369.829	0.002
370.163	0.002
370.496	0.002
370.830	0.002
371.163	0.003
371.497	0.003
371.830	0.003
372.163	0.003
372.497	0.003
372.830	0.003
373.164	0.003
373.497	0.003
373.831	0.004
374.164	0.004
374.497	0.004
374.831	0.004
375.164	0.004
375.498	0.005
375.831	0.005
376.165	0.005
376.498	0.005
376.832	0.005
377.165	0.006
377.498	0.006
377.832	0.006
378.165	0.006
378.499	0.007
378.832	0.007
379.166	0.007
379.499	0.008
379.832	0.008
380.166	0.008
380.499	0.009
380.833	0.009
381.166	0.010
381.500	0.010
381.833	0.010
382.166	0.011
382.500	0.011
382.833	0.012
383.167	0.012
383.500	0.013
383.834	0.014
384.167	0.014
384.500	0.015
384.834	0.015
385.167	0.016
385.501	0.017
385.834	0.017
386.168	0.018
386.501	0.019
386.834	0.020
387.168	0.021
387.501	0.021
387.835	0.022
388.168	0.023
388.502	0.024
388.835	0.025
389.168	0.026
389.502	0.028
389.835	0.029
390.169	0.030
390.502	0.031
390.836	0.032
391.169	0.034
391.503	0.035
391.836	0.037
392.169	0.038
392.503	0.040
392.836	0.041
393.170	0.043
393.503	0.045
393.837	0.047
394.170	0.049
394.503	0.051
394.837	0.053
395.170	0.055
395.504	0.057
395.837	0.059
396.171	0.062
396.504	0.064
396.837	0.067
397.171	0.069
397.504	0.072
397.838	0.075
398.171	0.078
398.505	0.081
398.838	0.084
399.171	0.088
399.505	0.091
399.838	0.095
400.172	0.098
400.505	0.102
400.839	0.106
401.172	0.111
401.505	0.115
401.839	0.119
402.172	0.124
402.506	0.129
402.839	0.134
403.173	0.139
403.506	0.144
403.839	0.150
404.173	0.156
404.506	0.162
404.840	0.168
405.173	0.174
405.507	0.181
405.840	0.188
406.174	0.195
406.507	0.202
406.840	0.210
407.174	0.218
407.507	0.226
407.841	0.234
408.174	0.243
408.508	0.252
408.841	0.262
409.174	0.271
409.508	0.282
409.841	0.292
410.175	0.303
410.508	0.314
410.842	0.326
411.175	0.338
411.508	0.350
411.842	0.363
412.175	0.376
412.509	0.390
412.842	0.404
413.176	0.418
413.509	0.434
413.842	0.449
414.176	0.465
414.509	0.482
414.843	0.499
415.176	0.517
415.510	0.536
415.843	0.555
416.176	0.574
416.510	0.595
416.843	0.616
417.177	0.638
417.510	0.660
417.844	0.683
418.177	0.707
418.510	0.732
418.844	0.757
419.177	0.784
419.511	0.811
419.844	0.839
420.178	0.868
420.511	0.898
420.845	0.929
421.178	0.961
421.511	0.994
421.845	1.027
422.178	1.062
422.512	1.099
422.845	1.136
423.179	1.174
423.512	1.214
423.845	1.255
424.179	1.297
424.512	1.340
424.846	1.385
425.179	1.431
425.513	1.479
425.846	1.528
426.179	1.579
426.513	1.631
426.846	1.684
427.180	1.740
427.513	1.797
427.847	1.856
428.180	1.916
428.513	1.978
428.847	2.043
429.180	2.109
429.514	2.177
429.847	2.247
430.181	2.319
430.514	2.394
430.847	2.470
431.181	2.549
431.514	2.630
431.848	2.713
432.181	2.799
432.515	2.888
432.848	2.979
433.181	3.072
433.515	3.169
433.848	3.268
434.182	3.369
434.515	3.474
434.849	3.582
435.182	3.693
435.516	3.807
435.849	3.924
436.182	4.044
436.516	4.168
436.849	4.295
437.183	4.426
437.516	4.560
437.850	4.698
438.183	4.840
438.516	4.986
438.850	5.136
439.183	5.290
439.517	5.448
439.850	5.610
440.184	5.777
440.517	5.948
440.850	6.124
441.184	6.305
441.517	6.490
441.851	6.680
442.184	6.876
442.518	7.076
442.851	7.282
443.184	7.493
443.518	7.710
443.851	7.932
444.185	8.161
444.518	8.395
444.852	8.635
445.185	8.881
445.518	9.133
445.852	9.393
446.185	9.658
446.519	9.930
446.852	10.210
447.186	10.496
447.519	10.789
447.852	11.090
448.186	11.398
448.519	11.714
448.853	12.038
449.186	12.370
449.520	12.710
449.853	13.058
450.187	13.415
450.520	13.780
450.853	14.154
451.187	14.538
451.520	14.930
451.854	15.332
452.187	15.743
452.521	16.165
452.854	16.596
453.187	17.037
453.521	17.489
453.854	17.951
454.188	18.424
454.521	18.909
454.855	19.404
455.188	19.911
455.521	20.429
455.855	20.959
456.188	21.502
456.522	22.056
456.855	22.623
457.189	23.203
457.522	23.796
457.855	24.403
458.189	25.022
458.522	25.656
458.856	26.303
459.189	26.965
459.523	27.641
459.856	28.332
460.189	29.038
460.523	29.759
460.856	30.496
461.190	31.248
461.523	32.017
461.857	32.802
462.190	33.604
462.523	34.422
462.857	35.258
463.190	36.111
463.524	36.982
463.857	37.871
464.191	38.778
464.524	39.704
464.858	40.649
465.191	41.613
465.524	42.596
465.858	43.600
466.191	44.624
466.525	45.668
466.858	46.733
467.192	47.819
467.525	48.926
467.858	50.055
468.192	51.206
468.525	52.380
468.859	53.576
469.192	54.796
469.526	56.038
469.859	57.305
470.192	58.596
470.526	59.910
470.859	61.250
471.193	62.615
471.526	64.005
471.860	65.421
472.193	66.863
472.526	68.331
472.860	69.827
473.193	71.349
473.527	72.899
473.860	74.477
474.194	76.083
474.527	77.718
474.860	79.381
475.194	81.074
475.527	82.796
475.861	84.549
476.194	86.332
476.528	88.145
476.861	89.990
477.194	91.866
477.528	93.774
477.861	95.714
478.195	97.686
478.528	99.692
478.862	101.730
479.195	103.802
479.529	105.909
479.862	108.049
480.195	110.224
480.529	112.434
480.862	114.680
481.196	116.961
481.529	119.279
481.863	121.632
482.196	124.023
482.529	126.451
482.863	128.916
483.196	131.419
483.530	133.960
483.863	136.539
484.197	139.158
484.530	141.815
484.863	144.512
485.197	147.249
485.530	150.026
485.864	152.844
486.197	155.702
486.531	158.601
486.864	161.542
487.197	164.524
487.531	167.549
487.864	170.616
488.198	173.725
488.531	176.877
488.865	180.072
489.198	183.311
489.531	186.594
489.865	189.920
490.198	193.291
490.532	196.706
490.865	200.166
491.199	203.671
491.532	207.221
491.865	210.817
492.199	214.458
492.532	218.145
492.866	221.878
493.199	225.658
493.533	229.484
493.866	233.357
494.200	237.276
494.533	241.243
494.866	245.257
495.200	249.318
495.533	253.427
495.867	257.584
496.200	261.788
496.534	266.040
496.867	270.340
497.200	274.689
497.534	279.085
497.867	283.530
498.201	288.023
498.534	292.565
498.868	297.155
499.201	301.794
499.534	306.481
499.868	311.217
500.201	316.002
500.535	320.835
500.868	325.716
501.202	330.647
501.535	335.625
501.868	340.653
502.202	345.729
502.535	350.853
502.869	356.025
503.202	361.246
503.536	366.515
503.869	371.832
504.202	377.196
504.536	382.609
504.869	388.068
505.203	393.576
505.536	399.130
505.870	404.732
506.203	410.380
506.536	416.075
506.870	421.817
507.203	427.604
507.537	433.438
507.870	439.317
508.204	445.241
508.537	451.210
508.871	457.225
509.204	463.283
509.537	469.386
509.871	475.532
510.204	481.721
510.538	487.954
510.871	494.229
511.205	500.546
511.538	506.905
511.871	513.305
512.205	519.747
512.538	526.228
512.872	532.750
513.205	539.311
513.539	545.911
513.872	552.549
514.205	559.225
514.539	565.939
514.872	572.690
515.206	579.476
515.539	586.299
515.873	593.157
516.206	600.049
516.539	606.975
516.873	613.934
517.206	620.927
517.540	627.951
517.873	635.006
518.207	642.092
518.540	649.209
518.873	656.354
519.207	663.529
519.540	670.731
519.874	677.961
520.207	685.217
520.541	692.499
520.874	699.806
521.207	707.137
521.541	714.492
521.874	721.870
522.208	729.270
522.541	736.691
522.875	744.133
523.208	751.594
523.542	759.074
523.875	766.573
524.208	774.089
524.542	781.621
524.875	789.169
525.209	796.733
525.542	804.310
525.876	811.901
526.209	819.505
526.542	827.121
526.876	834.752
527.209	842.405
527.543	850.107
527.876	857.934
528.210	866.097
528.543	875.138
528.876	886.357
529.210	902.652
529.543	930.066
529.877	980.278
530.210	1074.186
530.544	1246.189
530.877	1547.938
531.210	2049.215
531.544	2832.740
531.877	3979.962
532.211	5547.039
532.544	7534.459
532.878	9858.906
533.211	12339.575
533.544	14710.183
533.878	16660.989
534.211	17903.755
534.545	18241.495
534.878	17619.885
535.212	16141.890
535.545	14040.198
535.878	11617.600
536.212	9176.314
536.545	6958.764
536.879	5114.864
537.212	3699.034
537.546	2689.830
537.879	2019.999
538.213	1605.537
538.546	1366.745
538.879	1239.363
539.213	1177.479
539.546	1151.423
539.880	1143.654
540.213	1144.609
540.547	1149.457
540.880	1155.931
541.213	1163.038
541.547	1170.370
541.880	1177.773
542.214	1185.191
542.547	1192.605
542.881	1200.009
543.214	1207.401
543.547	1214.782
543.881	1222.152
544.214	1229.510
544.548	1236.857
544.881	1244.193
545.215	1251.519
545.548	1258.836
545.881	1266.143
546.215	1273.441
546.548	1280.731
546.882	1288.013
547.215	1295.288
547.549	1302.556
547.882	1309.819
548.215	1317.078
548.549	1324.331
548.882	1331.582
549.216	1338.830
549.549	1346.077
549.883	1353.324
550.216	1360.570
550.549	1367.819
550.883	1375.070
551.216	1382.324
551.550	1389.584
551.883	1396.850
552.217	1404.123
552.550	1411.405
552.884	1418.696
553.217	1425.999
553.550	1433.314
553.884	1440.644
554.217	1447.989
554.551	1455.350
554.884	1462.731
555.218	1470.131
555.551	1477.552
555.884	1484.996
556.218	1492.466
556.551	1499.961
556.885	1507.484
557.218	1515.036
557.552	1522.620
557.885	1530.236
558.218	1537.887
558.552	1545.574
558.885	1553.299
559.219	1561.064
559.552	1568.869
559.886	1576.718
560.219	1584.611
560.552	1592.551
560.886	1600.539
561.219	1608.576
561.553	1616.665
561.886	1624.807
562.220	1633.004
562.553	1641.257
562.886	1649.567
563.220	1657.938
563.553	1666.369
563.887	1674.863
564.220	1683.421
564.554	1692.044
564.887	1700.734
565.220	1709.493
565.554	1718.320
565.887	1727.219
566.221	1736.190
566.554	1745.233
566.888	1754.351
567.221	1763.544
567.555	1772.813
567.888	1782.159
568.221	1791.584
568.555	1801.086
568.888	1810.669
569.222	1820.331
569.555	1830.073
569.889	1839.897
570.222	1849.801
570.555	1859.787
570.889	1869.855
571.222	1880.004
571.556	1890.235
571.889	1900.548
572.223	1910.941
572.556	1921.416
572.889	1931.971
573.223	1942.606
573.556	1953.320
573.890	1964.113
574.223	1974.983
574.557	1985.929
574.890	1996.951
575.223	2008.047
575.557	2019.215
575.890	2030.455
576.224	2041.764
576.557	2053.141
576.891	2064.584
577.224	2076.091
577.557	2087.659
577.891	2099.287
578.224	2110.971
578.558	2122.710
578.891	2134.501
579.225	2146.341
579.558	2158.228
579.892	2170.157
580.225	2182.126
580.558	2194.131
580.892	2206.170
581.225	2218.239
581.559	2230.333
581.892	2242.449
582.226	2254.584
582.559	2266.733
582.892	2278.892
583.226	2291.057
583.559	2303.224
583.893	2315.387
584.226	2327.543
584.560	2339.687
584.893	2351.814
585.226	2363.919
585.560	2375.997
585.893	2388.043
586.227	2400.052
586.560	2412.019
586.894	2423.939
587.227	2435.806
587.560	2447.614
587.894	2459.359
588.227	2471.035
588.561	2482.636
588.894	2494.156
589.228	2505.591
589.561	2516.933
589.894	2528.178
590.228	2539.319
590.561	2550.352
590.895	2561.269
591.228	2572.065
591.562	2582.735
591.895	2593.273
592.228	2603.672
592.562	2613.927
592.895	2624.033
593.229	2633.983
593.562	2643.771
593.896	2653.393
594.229	2662.842
594.563	2672.113
594.896	2681.200
595.229	2690.098
595.563	2698.801
595.896	2707.304
596.230	2715.603
596.563	2723.691
596.897	2731.563
597.230	2739.215
597.563	2746.642
597.897	2753.839
598.230	2760.801
598.564	2767.525
598.897	2774.004
599.231	2780.236
599.564	2786.216
599.897	2791.940
600.231	2797.404
600.564	2802.604
600.898	2807.538
601.231	2812.201
601.565	2816.590
601.898	2820.703
602.231	2824.536
602.565	2828.086
602.898	2831.352
603.232	2834.330
603.565	2837.019
603.899	2839.417
604.232	2841.521
604.565	2843.330
604.899	2844.844
605.232	2846.059
605.566	2846.976
605.899	2847.594
606.233	2847.911
606.566	2847.928
606.899	2847.644
607.233	2847.060
607.566	2846.174
607.900	2844.989
608.233	2843.503
608.567	2841.719
608.900	2839.636
609.234	2837.257
609.567	2834.582
609.900	2831.613
610.234	2828.352
610.567	2824.800
610.901	2820.960
611.234	2816.834
611.568	2812.425
611.901	2807.734
612.234	2802.766
612.568	2797.522
612.901	2792.007
613.235	2786.223
613.568	2780.174
613.902	2773.864
614.235	2767.296
614.568	2760.475
614.902	2753.404
615.235	2746.088
615.569	2738.531
615.902	2730.738
616.236	2722.714
616.569	2714.462
616.902	2705.989
617.236	2697.298
617.569	2688.396
617.903	2679.287
618.236	2669.977
618.570	2660.471
618.903	2650.774
619.236	2640.893
619.570	2630.832
619.903	2620.597
620.237	2610.194
620.570	2599.630
620.904	2588.909
621.237	2578.037
621.570	2567.021
621.904	2555.867
622.237	2544.580
622.571	2533.166
622.904	2521.631
623.238	2509.982
623.571	2498.224
623.905	2486.363
624.238	2474.406
624.571	2462.357
624.905	2450.224
625.238	2438.012
625.572	2425.726
625.905	2413.374
626.239	2400.959
626.572	2388.489
626.905	2375.968
627.239	2363.403
627.572	2350.799
627.906	2338.161
628.239	2325.495
628.573	2312.806
628.906	2300.099
629.239	2287.380
629.573	2274.653
629.906	2261.924
630.240	2249.197
630.573	2236.478
630.907	2223.770
631.240	2211.078
631.573	2198.407
631.907	2185.761
632.240	2173.145
632.574	2160.562
632.907	2148.016
633.241	2135.512
633.574	2123.053
633.907	2110.642
634.241	2098.284
634.574	2085.981
634.908	2073.737
635.241	2061.555
635.575	2049.438
635.908	2037.389
636.241	2025.410
636.575	2013.505
636.908	2001.675
637.242	1989.923
637.575	1978.251
637.909	1966.662
638.242	1955.157
638.576	1943.738
638.909	1932.407
639.242	1921.166
639.576	1910.015
639.909	1898.957
640.243	1887.992
640.576	1877.122
640.910	1866.348
641.243	1855.670
641.576	1845.090
641.910	1834.608
642.243	1824.224
642.577	1813.940
642.910	1803.754
643.244	1793.669
643.577	1783.683
643.910	1773.797
644.244	1764.011
644.577	1754.325
644.911	1744.738
645.244	1735.250
645.578	1725.861
645.911	1716.570
646.244	1707.377
646.578	1698.281
646.911	1689.281
647.245	1680.378
647.578	1671.569
647.912	1662.854
648.245	1654.232
648.578	1645.702
648.912	1637.263
649.245	1628.913
649.579	1620.653
649.912	1612.480
650.246	1604.393
650.579	1596.391
650.912	1588.473
651.246	1580.637
651.579	1572.882
651.913	1565.206
652.246	1557.609
652.580	1550.088
652.913	1542.642
653.247	1535.270
653.580	1527.969
653.913	1520.740
654.247	1513.579
654.580	1506.486
654.914	1499.459
655.247	1492.496
655.581	1485.596
655.914	1478.758
656.247	1471.979
656.581	1465.258
656.914	1458.594
657.248	1451.985
657.581	1445.430
657.915	1438.927
658.248	1432.475
658.581	1426.072
658.915	1419.716
659.248	1413.407
659.582	1407.143
659.915	1400.922
660.249	1394.744
660.582	1388.606
660.915	1382.507
661.249	1376.447
661.582	1370.424
661.916	1364.436
662.249	1358.483
662.583	1352.563
662.916	1346.675
663.249	1340.818
663.583	1334.991
663.916	1329.192
664.250	1323.422
664.583	1317.678
664.917	1311.960
665.250	1306.267
665.583	1300.597
665.917	1294.951
666.250	1289.328
666.584	1283.725
666.917	1278.143
667.251	1272.582
667.584	1267.039
667.918	1261.515
668.251	1256.009
668.584	1250.520
668.918	1245.048
669.251	1239.592
669.585	1234.152
669.918	1228.727
670.252	1223.316
670.585	1217.920
670.918	1212.538
671.252	1207.169
671.585	1201.814
671.919	1196.471
672.252	1191.141
672.586	1185.823
672.919	1180.517
673.252	1175.223
673.586	1169.941
673.919	1164.670
674.253	1159.410
674.586	1154.162
674.920	1148.924
675.253	1143.698
675.586	1138.483
675.920	1133.278
676.253	1128.085
676.587	1122.902
676.920	1117.730
677.254	1112.570
677.587	1107.420
677.920	1102.281
678.254	1097.153
678.587	1092.036
678.921	1086.931
679.254	1081.837
679.588	1076.754
679.921	1071.683
680.254	1066.624
680.588	1061.576
680.921	1056.541
681.255	1051.517
681.588	1046.506
681.922	1041.507
682.255	1036.521
682.589	1031.548
682.922	1026.588
683.255	1021.641
683.589	1016.707
683.922	1011.786
684.256	1006.880
684.589	1001.987
684.923	997.109
685.256	992.244
685.589	987.394
685.923	982.559
686.256	977.739
686.590	972.933
686.923	968.143
687.257	963.368
687.590	958.608
687.923	953.865
688.257	949.137
688.590	944.425
688.924	939.729
689.257	935.049
689.591	930.386
689.924	925.740
690.257	921.110
690.591	916.497
690.924	911.900
691.258	907.321
691.591	902.759
691.925	898.214
692.258	893.687
692.591	889.177
692.925	884.684
693.258	880.209
693.592	875.751
693.925	871.311
694.259	866.889
694.592	862.485
694.925	858.098
695.259	853.729
695.592	849.377
695.926	845.044
696.259	840.728
696.593	836.430
696.926	832.149
697.260	827.887
697.593	823.641
697.926	819.414
698.260	815.204
698.593	811.012
698.927	806.837
699.260	802.679
699.594	798.538
699.927	794.415
700.260	790.309
700.594	786.220
700.927	782.147
701.261	778.092
701.594	774.052
701.928	770.030
702.261	766.024
702.594	762.034
702.928	758.060
703.261	754.102
703.595	750.160
703.928	746.233
704.262	742.322
704.595	738.426
704.928	734.546
705.262	730.680
705.595	726.829
705.929	722.992
706.262	719.170
706.596	715.362
706.929	711.569
707.262	707.789
707.596	704.022
707.929	700.269
708.263	696.529
708.596	692.802
708.930	689.088
709.263	685.387
709.596	681.698
709.930	678.021
710.263	674.356
710.597	670.703
710.930	667.061
711.264	663.431
711.597	659.812
711.931	656.204
712.264	652.606
712.597	649.019
712.931	645.443
713.264	641.876
713.598	638.320
713.931	634.773
714.265	631.235
714.598	627.707
714.931	624.188
715.265	620.678
715.598	617.177
715.932	613.684
716.265	610.199
716.599	606.723
716.932	603.255
717.265	599.795
717.599	596.342
717.932	592.896
718.266	589.459
718.599	586.028
718.933	582.604
719.266	579.187
719.599	575.777
719.933	572.373
720.266	568.976
720.600	565.585
720.933	562.200
721.267	558.821
721.600	555.449
721.933	552.082
722.267	548.720
722.600	545.364
722.934	542.014
723.267	538.669
723.601	535.330
723.934	531.995
724.267	528.666
724.601	525.342
724.934	522.022
725.268	518.708
725.601	515.398
725.935	512.094
726.268	508.794
726.602	505.498
726.935	502.208
727.268	498.922
727.602	495.640
727.935	492.364
728.269	489.091
728.602	485.824
728.936	482.560
729.269	479.302
729.602	476.048
729.936	472.798
730.269	469.553
730.603	466.312
730.936	463.076
731.270	459.845
731.603	456.618
731.936	453.396
732.270	450.179
732.603	446.966
732.937	443.759
733.270	440.556
733.604	437.358
733.937	434.165
734.270	430.977
734.604	427.794
734.937	424.616
735.271	421.444
735.604	418.277
735.938	415.115
736.271	411.959
736.604	408.809
736.938	405.664
737.271	402.525
737.605	399.392
737.938	396.265
738.272	393.144
738.605	390.030
738.938	386.921
739.272	383.820
739.605	380.724
739.939	377.636
740.272	374.554
740.606	371.480
740.939	368.412
741.273	365.352
741.606	362.299
741.939	359.254
742.273	356.216
742.606	353.186
742.940	350.164
743.273	347.150
743.607	344.144
743.940	341.147
744.273	338.158
744.607	335.178
744.940	332.206
745.274	329.244
745.607	326.290
745.941	323.346
746.274	320.411
746.607	317.486
746.941	314.571
747.274	311.665
747.608	308.769
747.941	305.884
748.275	303.009
748.608	300.144
748.941	297.290
749.275	294.447
749.608	291.614
749.942	288.793
750.275	285.983
750.609	283.184
750.942	280.397
751.275	277.622
751.609	274.858
751.942	272.106
752.276	269.366
752.609	266.639
752.943	263.924
753.276	261.222
753.609	258.532
753.943	255.855
754.276	253.191
754.610	250.540
754.943	247.902
755.277	245.278
755.610	242.667
755.944	240.069
756.277	237.486
756.610	234.916
756.944	232.360
757.277	229.818
757.611	227.291
757.944	224.777
758.278	222.279
758.611	219.794
758.944	217.325
759.278	214.870
759.611	212.430
759.945	210.005
760.278	207.595
760.612	205.200
760.945	202.820
761.278	200.456
761.612	198.107
761.945	195.774
762.279	193.456
762.612	191.154
762.946	188.868
763.279	186.597
763.612	184.342
763.946	182.104
764.279	179.881
764.613	177.674
764.946	175.484
765.280	173.310
765.613	171.152
765.946	169.010
766.280	166.885
766.613	164.776
766.947	162.683
767.280	160.607
767.614	158.547
767.947	156.505
768.280	154.478
768.614	152.468
768.947	150.475
769.281	148.499
769.614	146.539
769.948	144.596
770.281	142.670
770.615	140.760
770.948	138.867
771.281	136.991
771.615	135.131
771.948	133.289
772.282	131.463
772.615	129.653
772.949	127.861
773.282	126.085
773.615	124.326
773.949	122.584
774.282	120.858
774.616	119.149
774.949	117.456
775.283	115.781
775.616	114.121
775.949	112.479
776.283	110.852
776.616	109.243
776.950	107.649
777.283	106.072
777.617	104.512
777.950	102.968
778.283	101.440
778.617	99.928
778.950	98.432
779.284	96.953
779.617	95.489
779.951	94.042
780.284	92.610
780.617	91.195
780.951	89.795
781.284	88.411
781.618	87.042
781.951	85.690
782.285	84.352
782.618	83.031
782.951	81.724
783.285	80.433
783.618	79.157
783.952	77.897
784.285	76.651
784.619	75.420
784.952	74.205
785.286	73.004
785.619	71.818
785.952	70.646
786.286	69.490
786.619	68.347
786.953	67.219
787.286	66.106
787.620	65.006
787.953	63.921
788.286	62.849
788.620	61.792
788.953	60.748
789.287	59.718
789.620	58.702
789.954	57.699
790.287	56.710
790.620	55.734
790.954	54.771
791.287	53.821
791.621	52.885
791.954	51.961
792.288	51.050
792.621	50.151
792.954	49.266
793.288	48.392
793.621	47.531
793.955	46.683
794.288	45.846
794.622	45.021
794.955	44.209
795.288	43.408
795.622	42.619
795.955	41.841
796.289	41.075
796.622	40.321
796.956	39.577
797.289	38.845
797.623	38.124
797.956	37.414
798.289	36.714
798.623	36.026
798.956	35.347
799.290	34.680
799.623	34.023
799.957	33.376
800.290	32.739
800.623	32.112
800.957	31.495
801.290	30.888
801.624	30.290
801.957	29.703
802.291	29.124
802.624	28.555
802.957	27.996
803.291	27.445
803.624	26.904
803.958	26.371
804.291	25.848
804.625	25.333
804.958	24.827
805.291	24.329
805.625	23.839
805.958	23.358
806.292	22.885
806.625	22.421
806.959	21.964
807.292	21.515
807.625	21.074
807.959	20.640
808.292	20.215
808.626	19.796
808.959	19.385
809.293	18.981
809.626	18.585
809.959	18.195
810.293	17.813
810.626	17.437
810.960	17.069
811.293	16.707
811.627	16.351
811.960	16.002
812.294	15.660
812.627	15.323
812.960	14.993
813.294	14.669
813.627	14.352
813.961	14.040
814.294	13.734
814.628	13.434
814.961	13.139
815.294	12.850
815.628	12.567
815.961	12.289
816.295	12.016
816.628	11.749
816.962	11.487
817.295	11.230
817.628	10.978
817.962	10.731
818.295	10.489
818.629	10.251
818.962	10.018
819.296	9.790
819.629	9.567
819.962	9.348
820.296	9.133
820.629	8.923
820.963	8.717
821.296	8.515
821.630	8.318
821.963	8.124
822.296	7.934
822.630	7.749
822.963	7.567
823.297	7.389
823.630	7.214
823.964	7.044
824.297	6.876
824.630	6.713
824.964	6.553
825.297	6.396
825.631	6.242
825.964	6.092
826.298	5.945
826.631	5.802
826.965	5.661
827.298	5.523
827.631	5.389
827.965	5.257
828.298	5.128
828.632	5.002
828.965	4.879
829.299	4.758
829.632	4.641
829.965	4.525
830.299	4.413
830.632	4.303
830.966	4.195
831.299	4.090
831.633	3.987
831.966	3.886
832.299	3.788
832.633	3.692
832.966	3.598
833.300	3.507
833.633	3.417
833.967	3.330
834.300	3.244
834.633	3.161
834.967	3.079
835.300	3.000
835.634	2.922
835.967	2.846
836.301	2.772
836.634	2.699
836.967	2.629
837.301	2.560
837.634	2.492
837.968	2.427
838.301	2.363
838.635	2.300
838.968	2.239
839.301	2.179
839.635	2.121
839.968	2.064
840.302	2.009
840.635	1.955
840.969	1.902
841.302	1.851
841.636	1.801
841.969	1.752
842.302	1.704
842.636	1.658
842.969	1.612
843.303	1.568
843.636	1.525
843.970	1.483
844.303	1.442
844.636	1.402
844.970	1.364
845.303	1.326
845.637	1.289
845.970	1.253
846.304	1.218
846.637	1.184
846.970	1.150
847.304	1.118
847.637	1.086
847.971	1.056
848.304	1.026
848.638	0.996
848.971	0.968
849.304	0.940
849.638	0.914
849.971	0.887
850.305	0.862
850.638	0.837
850.972	0.813
851.305	0.789
851.638	0.766
851.972	0.744
852.305	0.722
852.639	0.701
852.972	0.681
853.306	0.661
853.639	0.641
853.972	0.623
854.306	0.604
854.639	0.586
854.973	0.569
855.306	0.552
855.640	0.536
855.973	0.520
856.307	0.504
856.640	0.489
856.973	0.474
857.307	0.460
857.640	0.446
857.974	0.433
858.307	0.420
858.641	0.407
858.974	0.394
859.307	0.382
859.641	0.371
859.974	0.359
860.308	0.348
860.641	0.338
860.975	0.327
861.308	0.317
861.641	0.307
861.975	0.298
862.308	0.289
862.642	0.280
862.975	0.271
863.309	0.262
863.642	0.254
863.975	0.246
864.309	0.238
864.642	0.231
864.976	0.224
865.309	0.217
865.643	0.210
865.976	0.203
866.309	0.197
866.643	0.190
866.976	0.184
867.310	0.178
867.643	0.173
867.977	0.167
868.310	0.162
868.643	0.156
868.977	0.151
869.310	0.147
869.644	0.142
869.977	0.137
870.311	0.133
870.644	0.128
870.978	0.124
871.311	0.120
871.644	0.116
871.978	0.112
872.311	0.109
872.645	0.105
872.978	0.102
873.312	0.098
873.645	0.095
873.978	0.092
874.312	0.089
874.645	0.086
874.979	0.083
875.312	0.080
875.646	0.077
875.979	0.075
876.312	0.072
876.646	0.070
876.979	0.067
877.313	0.065
877.646	0.063
877.980	0.061
878.313	0.059
878.646	0.057
878.980	0.055
879.313	0.053
879.647	0.051
879.980	0.049
880.314	0.048
880.647	0.046
880.980	0.044
881.314	0.043
881.647	0.041
881.981	0.040
882.314	0.039
882.648	0.037
882.981	0.036
883.314	0.035
883.648	0.033
883.981	0.032
884.315	0.031
884.648	0.030
884.982	0.029
885.315	0.028
885.649	0.027
885.982	0.026
886.315	0.025
886.649	0.024
886.982	0.023
887.316	0.022
887.649	0.022
887.983	0.021
888.316	0.020
888.649	0.019
888.983	0.019
889.316	0.018
889.650	0.017
889.983	0.017
890.317	0.016
890.650	0.016
890.983	0.015
891.317	0.014
891.650	0.014
891.984	0.013
892.317	0.013
892.651	0.012
892.984	0.012
893.317	0.011
893.651	0.011
893.984	0.011
894.318	0.010
894.651	0.010
894.985	0.010
895.318	0.009
895.651	0.009
895.985	0.008
896.318	0.008
896.652	0.008
896.985	0.008
897.319	0.007
897.652	0.007
897.985	0.007
898.319	0.006
898.652	0.006
898.986	0.006
899.319	0.006
899.653	0.006
899.986	0.005
900.320	0.005
900.653	0.005
900.986	0.005
901.320	0.005
901.653	0.004
901.987	0.004
902.320	0.004
902.654	0.004
902.987	0.004
903.320	0.004
903.654	0.003
903.987	0.003
904.321	0.003
904.654	0.003
904.988	0.003
905.321	0.003
905.654	0.003
905.988	0.003
906.321	0.003
906.655	0.002
906.988	0.002
907.322	0.002
907.655	0.002
907.988	0.002
908.322	0.002
908.655	0.002
908.989	0.002
909.322	0.002
909.656	0.002
909.989	0.002
910.322	0.002
910.656	0.001
910.989	0.001
911.323	0.001
911.656	0.001
911.990	0.001
912.323	0.001
912.656	0.001
912.990	0.001
913.323	0.001
913.657	0.001
913.990	0.001
914.324	0.001
914.657	0.001
914.991	0.001
915.324	0.001
915.657	0.001
915.991	0.001
916.324	0.001
916.658	0.001
916.991	0.001
917.325	0.001
917.658	0.001
917.991	0.001
918.325	0.001
918.658	0.001
918.992	0.001
919.325	0.000
919.659	0.000
919.992	0.000
920.325	0.000
920.659	0.000
920.992	0.000
921.326	0.000
921.659	0.000
921.993	0.000
922.326	0.000
922.659	0.000
922.993	0.000
923.326	0.000
923.660	0.000
923.993	0.000
924.327	0.000
924.660	0.000
924.993	0.000
925.327	0.000
925.660	0.000
925.994	0.000
926.327	0.000
926.661	0.000
926.994	0.000
927.327	0.000
927.661	0.000
927.994	0.000
928.328	0.000
928.661	0.000
928.995	0.000
929.328	0.000
929.662	0.000
929.995	0.000
930.328	0.000
930.662	0.000
930.995	0.000
931.329	0.000
931.662	0.000
931.996	0.000
932.329	0.000
932.662	0.000
932.996	0.000
933.329	0.000
933.663	0.000
933.996	0.000
934.330	0.000
934.663	0.000
934.996	0.000
935.330	0.000
935.663	0.000
935.997	0.000
936.330	0.000
936.664	0.000
936.997	0.000
937.330	0.000
937.664	0.000
937.997	0.000
938.331	0.000
938.664	0.000
938.998	0.000
939.331	0.000
939.664	0.000
939.998	0.000
940.331	0.000
940.665	0.000
940.998	0.000
941.332	0.000
941.665	0.000
941.998	0.000
942.332	0.000
942.665	0.000
942.999	0.000
943.332	0.000
943.666	0.000
943.999	0.000
944.333	0.000
944.666	0.000
944.999	0.000
945.333	0.000
945.666	0.000
946.000	0.000
946.333	0.000
946.667	0.000
947.000	0.000
947.333	0.000
947.667	0.000
948.000	0.000
948.334	0.000
948.667	0.000
949.001	0.000
949.334	0.000
949.667	0.000
950.001	0.000
950.334	0.000
950.668	0.000
951.001	0.000
951.335	0.000
951.668	0.000
952.001	0.000
952.335	0.000
952.668	0.000
953.002	0.000
953.335	0.000
953.669	0.000
954.002	0.000
954.335	0.000
954.669	0.000
955.002	0.000
955.336	0.000
955.669	0.000
956.003	0.000
956.336	0.000
956.669	0.000
957.003	0.000
957.336	0.000
957.670	0.000
958.003	0.000
958.337	0.000
958.670	0.000
959.004	0.000
959.337	0.000
959.670	0.000
960.004	0.000
960.337	0.000
960.671	0.000
961.004	0.000
961.338	0.000
961.671	0.000
962.004	0.000
962.338	0.000
962.671	0.000
963.005	0.000
963.338	0.000
963.672	0.000
964.005	0.000
964.338	0.000
964.672	0.000
965.005	0.000
965.339	0.000
965.672	0.000
966.006	0.000
966.339	0.000
966.672	0.000
967.006	0.000
967.339	0.000
967.673	0.000
968.006	0.000
968.340	0.000
968.673	0.000
969.006	0.000
969.340	0.000
969.673	0.000
970.007	0.000
970.340	0.000
970.674	0.000
971.007	0.000
971.340	0.000
971.674	0.000
972.007	0.000
972.341	0.000
972.674	0.000
973.008	0.000
973.341	0.000
973.675	0.000
974.008	0.000
974.341	0.000
974.675	0.000
975.008	0.000
975.342	0.000
975.675	0.000
976.009	0.000
976.342	0.000
976.675	0.000
977.009	0.000
977.342	0.000
977.676	0.000
978.009	0.000
978.343	0.000
978.676	0.000
979.009	0.000
979.343	0.000
979.676	0.000
980.010	0.000
980.343	0.000
980.677	0.000
981.010	0.000
981.343	0.000
981.677	0.000
982.010	0.000
982.344	0.000
982.677	0.000
983.011	0.000
983.344	0.000
983.677	0.000
984.011	0.000
984.344	0.000
984.678	0.000
985.011	0.000
985.345	0.000
985.678	0.000
986.011	0.000
986.345	0.000
986.678	0.000
987.012	0.000
987.345	0.000
987.679	0.000
988.012	0.000
988.346	0.000
988.679	0.000
989.012	0.000
989.346	0.000
989.679	0.000
990.013	0.000
990.346	0.000
990.680	0.000
991.013	0.000
991.346	0.000
991.680	0.000
992.013	0.000
992.347	0.000
992.680	0.000
993.014	0.000
993.347	0.000
993.680	0.000
994.014	0.000
994.347	0.000
994.681	0.000
995.014	0.000
995.348	0.000
995.681	0.000
996.014	0.000
996.348	0.000
996.681	0.000
997.015	0.000
997.348	0.000
997.682	0.000
998.015	0.000
998.348	0.000
998.682	0.000
999.015	0.000
999.349	0.000
999.682	0.000
1000.016	0.000
1000.349	0.000
1000.682	0.000
1001.016	0.000
1001.349	0.000
1001.683	0.000
1002.016	0.000
1002.350	0.000
1002.683	0.000
1003.017	0.000
1003.350	0.000
1003.683	0.000
1004.017	0.000
1004.350	0.000
1004.684	0.000
1005.017	0.000
1005.351	0.000
1005.684	0.000
1006.017	0.000
1006.351	0.000
1006.684	0.000
1007.018	0.000
1007.351	0.000
1007.685	0.000
1008.018	0.000
1008.351	0.000
1008.685	0.000
1009.018	0.000
1009.352	0.000
1009.685	0.000
1010.019	0.000
1010.352	0.000
1010.685	0.000
1011.019	0.000
1011.352	0.000
1011.686	0.000
1012.019	0.000
1012.353	0.000
1012.686	0.000
1013.019	0.000
1013.353	0.000
1013.686	0.000
1014.020	0.000
1014.353	0.000
1014.687	0.000
1015.020	0.000
1015.353	0.000
1015.687	0.000
1016.020	0.000
1016.354	0.000
1016.687	0.000
1017.021	0.000
1017.354	0.000
1017.688	0.000
1018.021	0.000
1018.354	0.000
1018.688	0.000
1019.021	0.000
1019.355	0.000
1019.688	0.000
1020.022	0.000
1020.355	0.000
1020.688	0.000
1021.022	0.000
1021.355	0.000
1021.689	0.000
1022.022	0.000
1022.356	0.000
1022.689	0.000
