Data from repetition_1.txt_16-47-09-365.txt Node
Date: Sun Jun 13 23:27:09 CET 2021
User: fcossio
Spectrometer: FLMS15016
Trigger mode: 0
Integration Time (sec): 3.000000E-1Scans to average: 1
Electric dark correction enabled: true
Nonlinearity correction enabled: false
Boxcar width: 0
XAxis mode: Wavelengths
Number of Pixels in Spectrum: 2048
>>>>>Begin Spectral Data<<<<<
340.154	0.000
340.487	0.000
340.821	0.000
341.154	0.000
341.488	0.000
341.821	0.000
342.155	0.000
342.488	0.000
342.821	0.000
343.155	0.000
343.488	0.000
343.822	0.000
344.155	0.000
344.489	0.000
344.822	0.000
345.155	0.000
345.489	0.000
345.822	0.000
346.156	0.000
346.489	0.000
346.823	0.000
347.156	0.000
347.490	0.000
347.823	0.000
348.156	0.000
348.490	0.000
348.823	0.000
349.157	0.000
349.490	0.000
349.824	0.000
350.157	0.000
350.490	0.000
350.824	0.000
351.157	0.000
351.491	0.000
351.824	0.000
352.158	0.000
352.491	0.000
352.824	0.000
353.158	0.000
353.491	0.000
353.825	0.000
354.158	0.000
354.492	0.000
354.825	0.000
355.158	0.000
355.492	0.000
355.825	0.000
356.159	0.000
356.492	0.000
356.826	0.000
357.159	0.000
357.492	0.000
357.826	0.000
358.159	0.000
358.493	0.000
358.826	0.000
359.160	0.000
359.493	0.000
359.826	0.000
360.160	0.000
360.493	0.000
360.827	0.000
361.160	0.000
361.494	0.000
361.827	0.000
362.161	0.000
362.494	0.000
362.827	0.000
363.161	0.000
363.494	0.000
363.828	0.000
364.161	0.000
364.495	0.001
364.828	0.001
365.161	0.001
365.495	0.001
365.828	0.001
366.162	0.001
366.495	0.001
366.829	0.001
367.162	0.001
367.495	0.001
367.829	0.001
368.162	0.001
368.496	0.001
368.829	0.001
369.163	0.001
369.496	0.001
369.829	0.001
370.163	0.001
370.496	0.001
370.830	0.001
371.163	0.001
371.497	0.001
371.830	0.001
372.163	0.002
372.497	0.002
372.830	0.002
373.164	0.002
373.497	0.002
373.831	0.002
374.164	0.002
374.497	0.002
374.831	0.002
375.164	0.002
375.498	0.002
375.831	0.003
376.165	0.003
376.498	0.003
376.832	0.003
377.165	0.003
377.498	0.003
377.832	0.003
378.165	0.003
378.499	0.004
378.832	0.004
379.166	0.004
379.499	0.004
379.832	0.004
380.166	0.004
380.499	0.005
380.833	0.005
381.166	0.005
381.500	0.005
381.833	0.006
382.166	0.006
382.500	0.006
382.833	0.006
383.167	0.007
383.500	0.007
383.834	0.007
384.167	0.008
384.500	0.008
384.834	0.008
385.167	0.009
385.501	0.009
385.834	0.009
386.168	0.010
386.501	0.010
386.834	0.011
387.168	0.011
387.501	0.012
387.835	0.012
388.168	0.013
388.502	0.013
388.835	0.014
389.168	0.014
389.502	0.015
389.835	0.016
390.169	0.016
390.502	0.017
390.836	0.018
391.169	0.019
391.503	0.019
391.836	0.020
392.169	0.021
392.503	0.022
392.836	0.023
393.170	0.024
393.503	0.025
393.837	0.026
394.170	0.027
394.503	0.028
394.837	0.029
395.170	0.031
395.504	0.032
395.837	0.033
396.171	0.035
396.504	0.036
396.837	0.037
397.171	0.039
397.504	0.041
397.838	0.042
398.171	0.044
398.505	0.046
398.838	0.048
399.171	0.050
399.505	0.052
399.838	0.054
400.172	0.056
400.505	0.058
400.839	0.061
401.172	0.063
401.505	0.066
401.839	0.068
402.172	0.071
402.506	0.074
402.839	0.077
403.173	0.080
403.506	0.083
403.839	0.086
404.173	0.090
404.506	0.093
404.840	0.097
405.173	0.101
405.507	0.105
405.840	0.109
406.174	0.113
406.507	0.117
406.840	0.122
407.174	0.127
407.507	0.131
407.841	0.137
408.174	0.142
408.508	0.147
408.841	0.153
409.174	0.159
409.508	0.165
409.841	0.171
410.175	0.178
410.508	0.184
410.842	0.191
411.175	0.199
411.508	0.206
411.842	0.214
412.175	0.222
412.509	0.230
412.842	0.239
413.176	0.248
413.509	0.257
413.842	0.267
414.176	0.277
414.509	0.287
414.843	0.298
415.176	0.309
415.510	0.320
415.843	0.332
416.176	0.344
416.510	0.356
416.843	0.369
417.177	0.383
417.510	0.397
417.844	0.411
418.177	0.426
418.510	0.441
418.844	0.457
419.177	0.474
419.511	0.491
419.844	0.508
420.178	0.526
420.511	0.545
420.845	0.564
421.178	0.584
421.511	0.605
421.845	0.626
422.178	0.648
422.512	0.671
422.845	0.695
423.179	0.719
423.512	0.744
423.845	0.770
424.179	0.797
424.512	0.824
424.846	0.853
425.179	0.882
425.513	0.913
425.846	0.944
426.179	0.976
426.513	1.009
426.846	1.044
427.180	1.079
427.513	1.116
427.847	1.154
428.180	1.193
428.513	1.233
428.847	1.274
429.180	1.317
429.514	1.361
429.847	1.406
430.181	1.453
430.514	1.501
430.847	1.551
431.181	1.602
431.514	1.655
431.848	1.709
432.181	1.765
432.515	1.823
432.848	1.882
433.181	1.944
433.515	2.007
433.848	2.072
434.182	2.139
434.515	2.208
434.849	2.279
435.182	2.352
435.516	2.427
435.849	2.504
436.182	2.584
436.516	2.666
436.849	2.750
437.183	2.837
437.516	2.926
437.850	3.018
438.183	3.113
438.516	3.210
438.850	3.310
439.183	3.413
439.517	3.519
439.850	3.628
440.184	3.739
440.517	3.855
440.850	3.973
441.184	4.094
441.517	4.219
441.851	4.348
442.184	4.480
442.518	4.615
442.851	4.755
443.184	4.898
443.518	5.045
443.851	5.196
444.185	5.352
444.518	5.511
444.852	5.675
445.185	5.843
445.518	6.016
445.852	6.193
446.185	6.375
446.519	6.562
446.852	6.754
447.186	6.951
447.519	7.153
447.852	7.360
448.186	7.573
448.519	7.792
448.853	8.016
449.186	8.246
449.520	8.481
449.853	8.723
450.187	8.971
450.520	9.226
450.853	9.486
451.187	9.754
451.520	10.028
451.854	10.309
452.187	10.597
452.521	10.893
452.854	11.196
453.187	11.506
453.521	11.824
453.854	12.149
454.188	12.483
454.521	12.825
454.855	13.175
455.188	13.534
455.521	13.902
455.855	14.278
456.188	14.663
456.522	15.058
456.855	15.462
457.189	15.876
457.522	16.299
457.855	16.732
458.189	17.176
458.522	17.630
458.856	18.095
459.189	18.570
459.523	19.056
459.856	19.554
460.189	20.063
460.523	20.583
460.856	21.116
461.190	21.660
461.523	22.217
461.857	22.787
462.190	23.369
462.523	23.964
462.857	24.573
463.190	25.194
463.524	25.830
463.857	26.480
464.191	27.144
464.524	27.822
464.858	28.515
465.191	29.223
465.524	29.946
465.858	30.685
466.191	31.439
466.525	32.210
466.858	32.997
467.192	33.800
467.525	34.621
467.858	35.458
468.192	36.313
468.525	37.186
468.859	38.076
469.192	38.985
469.526	39.913
469.859	40.859
470.192	41.825
470.526	42.810
470.859	43.814
471.193	44.839
471.526	45.884
471.860	46.950
472.193	48.037
472.526	49.146
472.860	50.276
473.193	51.428
473.527	52.602
473.860	53.799
474.194	55.018
474.527	56.261
474.860	57.528
475.194	58.819
475.527	60.133
475.861	61.473
476.194	62.837
476.528	64.227
476.861	65.642
477.194	67.083
477.528	68.551
477.861	70.045
478.195	71.566
478.528	73.114
478.862	74.690
479.195	76.295
479.529	77.927
479.862	79.588
480.195	81.279
480.529	82.998
480.862	84.748
481.196	86.527
481.529	88.337
481.863	90.178
482.196	92.050
482.529	93.954
482.863	95.890
483.196	97.857
483.530	99.858
483.863	101.891
484.197	103.958
484.530	106.058
484.863	108.192
485.197	110.361
485.530	112.564
485.864	114.802
486.197	117.076
486.531	119.385
486.864	121.731
487.197	124.113
487.531	126.531
487.864	128.987
488.198	131.480
488.531	134.011
488.865	136.580
489.198	139.187
489.531	141.833
489.865	144.518
490.198	147.243
490.532	150.007
490.865	152.811
491.199	155.655
491.532	158.540
491.865	161.466
492.199	164.433
492.532	167.441
492.866	170.491
493.199	173.584
493.533	176.718
493.866	179.895
494.200	183.115
494.533	186.378
494.866	189.685
495.200	193.035
495.533	196.429
495.867	199.867
496.200	203.349
496.534	206.876
496.867	210.448
497.200	214.064
497.534	217.726
497.867	221.434
498.201	225.187
498.534	228.985
498.868	232.830
499.201	236.721
499.534	240.658
499.868	244.641
500.201	248.671
500.535	252.748
500.868	256.872
501.202	261.042
501.535	265.260
501.868	269.525
502.202	273.837
502.535	278.197
502.869	282.603
503.202	287.058
503.536	291.560
503.869	296.109
504.202	300.707
504.536	305.351
504.869	310.044
505.203	314.784
505.536	319.572
505.870	324.407
506.203	329.290
506.536	334.221
506.870	339.199
507.203	344.224
507.537	349.297
507.870	354.417
508.204	359.584
508.537	364.799
508.871	370.060
509.204	375.368
509.537	380.723
509.871	386.124
510.204	391.571
510.538	397.065
510.871	402.604
511.205	408.190
511.538	413.820
511.871	419.496
512.205	425.217
512.538	430.982
512.872	436.792
513.205	442.646
513.539	448.544
513.872	454.486
514.205	460.470
514.539	466.498
514.872	472.568
515.206	478.680
515.539	484.834
515.873	491.029
516.206	497.265
516.539	503.541
516.873	509.858
517.206	516.214
517.540	522.609
517.873	529.043
518.207	535.515
518.540	542.025
518.873	548.571
519.207	555.155
519.540	561.774
519.874	568.429
520.207	575.119
520.541	581.844
520.874	588.602
521.207	595.394
521.541	602.221
521.874	609.082
522.208	615.984
522.541	622.934
522.875	629.954
523.208	637.085
523.542	644.411
523.875	652.092
524.208	660.422
524.542	669.928
524.875	681.512
525.209	696.676
525.542	717.820
525.876	748.640
526.209	794.607
526.542	863.488
526.876	965.820
527.209	1115.220
527.543	1328.343
527.876	1624.292
528.210	2023.301
528.543	2544.567
528.876	3203.270
529.210	4007.010
529.543	4952.106
529.877	6020.427
530.210	7177.504
530.544	8372.646
530.877	9541.536
531.210	10611.375
531.544	11508.141
531.877	12164.999
532.211	12530.575
532.544	12575.665
532.878	12297.166
533.211	11718.501
533.544	10886.450
533.878	9864.983
534.211	8727.233
534.545	7546.979
534.878	6391.033
535.212	5313.548
535.545	4352.818
535.878	3530.631
536.212	2853.745
536.545	2316.834
536.879	1906.134
537.212	1603.079
537.546	1387.449
537.879	1239.733
538.213	1142.635
538.546	1081.816
538.879	1046.047
539.213	1026.960
539.546	1018.601
539.880	1016.908
540.213	1019.219
540.547	1023.856
540.880	1029.798
541.213	1036.448
541.547	1043.465
541.880	1050.665
542.214	1057.948
542.547	1065.264
542.881	1072.588
543.214	1079.907
543.547	1087.215
543.881	1094.510
544.214	1101.790
544.548	1109.054
544.881	1116.302
545.215	1123.534
545.548	1130.749
545.881	1137.946
546.215	1145.127
546.548	1152.290
546.882	1159.436
547.215	1166.565
547.549	1173.676
547.882	1180.770
548.215	1187.847
548.549	1194.906
548.882	1201.949
549.216	1208.974
549.549	1215.983
549.883	1222.976
550.216	1229.952
550.549	1236.913
550.883	1243.859
551.216	1250.789
551.550	1257.706
551.883	1264.608
552.217	1271.498
552.550	1278.374
552.884	1285.239
553.217	1292.092
553.550	1298.935
553.884	1305.768
554.217	1312.593
554.551	1319.409
554.884	1326.218
555.218	1333.022
555.551	1339.820
555.884	1346.615
556.218	1353.407
556.551	1360.197
556.885	1366.987
557.218	1373.779
557.552	1380.572
557.885	1387.369
558.218	1394.171
558.552	1400.980
558.885	1407.797
559.219	1414.624
559.552	1421.461
559.886	1428.312
560.219	1435.177
560.552	1442.058
560.886	1448.958
561.219	1455.877
561.553	1462.818
561.886	1469.782
562.220	1476.772
562.553	1483.789
562.886	1490.836
563.220	1497.913
563.553	1505.024
563.887	1512.171
564.220	1519.355
564.554	1526.578
564.887	1533.843
565.220	1541.152
565.554	1548.507
565.887	1555.910
566.221	1563.364
566.554	1570.870
566.888	1578.431
567.221	1586.048
567.555	1593.725
567.888	1601.464
568.221	1609.265
568.555	1617.133
568.888	1625.069
569.222	1633.075
569.555	1641.153
569.889	1649.306
570.222	1657.535
570.555	1665.843
570.889	1674.232
571.222	1682.704
571.556	1691.261
571.889	1699.904
572.223	1708.637
572.556	1717.460
572.889	1726.377
573.223	1735.387
573.556	1744.494
573.890	1753.699
574.223	1763.003
574.557	1772.409
574.890	1781.917
575.223	1791.530
575.557	1801.248
575.890	1811.072
576.224	1821.005
576.557	1831.047
576.891	1841.200
577.224	1851.463
577.557	1861.839
577.891	1872.327
578.224	1882.929
578.558	1893.645
578.891	1904.476
579.225	1915.421
579.558	1926.481
579.892	1937.657
580.225	1948.948
580.558	1960.354
580.892	1971.874
581.225	1983.510
581.559	1995.259
581.892	2007.121
582.226	2019.096
582.559	2031.182
582.892	2043.379
583.226	2055.686
583.559	2068.100
583.893	2080.621
584.226	2093.247
584.560	2105.976
584.893	2118.806
585.226	2131.735
585.560	2144.762
585.893	2157.882
586.227	2171.095
586.560	2184.397
586.894	2197.785
587.227	2211.257
587.560	2224.809
587.894	2238.438
588.227	2252.140
588.561	2265.912
588.894	2279.751
589.228	2293.651
589.561	2307.610
589.894	2321.623
590.228	2335.685
590.561	2349.792
590.895	2363.940
591.228	2378.123
591.562	2392.337
591.895	2406.577
592.228	2420.837
592.562	2435.111
592.895	2449.396
593.229	2463.684
593.562	2477.971
593.896	2492.250
594.229	2506.515
594.563	2520.761
594.896	2534.982
595.229	2549.170
595.563	2563.320
595.896	2577.425
596.230	2591.479
596.563	2605.475
596.897	2619.406
597.230	2633.266
597.563	2647.048
597.897	2660.745
598.230	2674.349
598.564	2687.855
598.897	2701.254
599.231	2714.541
599.564	2727.707
599.897	2740.746
600.231	2753.651
600.564	2766.414
600.898	2779.028
601.231	2791.487
601.565	2803.782
601.898	2815.908
602.231	2827.856
602.565	2839.620
602.898	2851.193
603.232	2862.568
603.565	2873.737
603.899	2884.695
604.232	2895.434
604.565	2905.947
604.899	2916.228
605.232	2926.271
605.566	2936.069
605.899	2945.615
606.233	2954.903
606.566	2963.928
606.899	2972.683
607.233	2981.161
607.566	2989.359
607.900	2997.269
608.233	3004.887
608.567	3012.207
608.900	3019.223
609.234	3025.932
609.567	3032.328
609.900	3038.406
610.234	3044.162
610.567	3049.591
610.901	3054.690
611.234	3059.454
611.568	3063.881
611.901	3067.965
612.234	3071.705
612.568	3075.096
612.901	3078.136
613.235	3080.822
613.568	3083.152
613.902	3085.124
614.235	3086.735
614.568	3087.983
614.902	3088.867
615.235	3089.386
615.569	3089.539
615.902	3089.324
616.236	3088.740
616.569	3087.788
616.902	3086.468
617.236	3084.778
617.569	3082.720
617.903	3080.294
618.236	3077.500
618.570	3074.340
618.903	3070.815
619.236	3066.926
619.570	3062.674
619.903	3058.062
620.237	3053.092
620.570	3047.765
620.904	3042.085
621.237	3036.054
621.570	3029.675
621.904	3022.951
622.237	3015.885
622.571	3008.481
622.904	3000.743
623.238	2992.675
623.571	2984.280
623.905	2975.563
624.238	2966.528
624.571	2957.181
624.905	2947.525
625.238	2937.566
625.572	2927.308
625.905	2916.758
626.239	2905.920
626.572	2894.800
626.905	2883.404
627.239	2871.738
627.572	2859.807
627.906	2847.617
628.239	2835.175
628.573	2822.487
628.906	2809.559
629.239	2796.398
629.573	2783.010
629.906	2769.401
630.240	2755.579
630.573	2741.551
630.907	2727.322
631.240	2712.900
631.573	2698.291
631.907	2683.504
632.240	2668.544
632.574	2653.418
632.907	2638.134
633.241	2622.698
633.574	2607.119
633.907	2591.401
634.241	2575.553
634.574	2559.582
634.908	2543.495
635.241	2527.298
635.575	2510.998
635.908	2494.603
636.241	2478.119
636.575	2461.553
636.908	2444.912
637.242	2428.203
637.575	2411.431
637.909	2394.605
638.242	2377.729
638.576	2360.812
638.909	2343.858
639.242	2326.875
639.576	2309.868
639.909	2292.844
640.243	2275.808
640.576	2258.767
640.910	2241.726
641.243	2224.691
641.576	2207.668
641.910	2190.661
642.243	2173.677
642.577	2156.721
642.910	2139.798
643.244	2122.913
643.577	2106.070
643.910	2089.275
644.244	2072.532
644.577	2055.845
644.911	2039.220
645.244	2022.660
645.578	2006.169
645.911	1989.752
646.244	1973.412
646.578	1957.154
646.911	1940.980
647.245	1924.894
647.578	1908.900
647.912	1893.000
648.245	1877.199
648.578	1861.498
648.912	1845.901
649.245	1830.410
649.579	1815.028
649.912	1799.758
650.246	1784.601
650.579	1769.560
650.912	1754.637
651.246	1739.834
651.579	1725.152
651.913	1710.594
652.246	1696.161
652.580	1681.855
652.913	1667.677
653.247	1653.627
653.580	1639.708
653.913	1625.921
654.247	1612.265
654.580	1598.743
654.914	1585.354
655.247	1572.100
655.581	1558.981
655.914	1545.998
656.247	1533.150
656.581	1520.439
656.914	1507.863
657.248	1495.424
657.581	1483.122
657.915	1470.956
658.248	1458.926
658.581	1447.032
658.915	1435.274
659.248	1423.651
659.582	1412.163
659.915	1400.809
660.249	1389.590
660.582	1378.504
660.915	1367.550
661.249	1356.729
661.582	1346.039
661.916	1335.479
662.249	1325.049
662.583	1314.748
662.916	1304.574
663.249	1294.528
663.583	1284.607
663.916	1274.811
664.250	1265.139
664.583	1255.589
664.917	1246.161
665.250	1236.854
665.583	1227.665
665.917	1218.595
666.250	1209.641
666.584	1200.803
666.917	1192.079
667.251	1183.468
667.584	1174.969
667.918	1166.580
668.251	1158.301
668.584	1150.129
668.918	1142.064
669.251	1134.104
669.585	1126.248
669.918	1118.494
670.252	1110.842
670.585	1103.289
670.918	1095.835
671.252	1088.479
671.585	1081.218
671.919	1074.051
672.252	1066.978
672.586	1059.997
672.919	1053.106
673.252	1046.305
673.586	1039.591
673.919	1032.965
674.253	1026.423
674.586	1019.966
674.920	1013.592
675.253	1007.299
675.586	1001.086
675.920	994.953
676.253	988.898
676.587	982.919
676.920	977.016
677.254	971.187
677.587	965.431
677.920	959.747
678.254	954.134
678.587	948.590
678.921	943.116
679.254	937.708
679.588	932.367
679.921	927.091
680.254	921.880
680.588	916.731
680.921	911.644
681.255	906.619
681.588	901.653
681.922	896.747
682.255	891.898
682.589	887.107
682.922	882.371
683.255	877.691
683.589	873.065
683.922	868.492
684.256	863.971
684.589	859.501
684.923	855.082
685.256	850.713
685.589	846.392
685.923	842.119
686.256	837.893
686.590	833.713
686.923	829.578
687.257	825.487
687.590	821.441
687.923	817.437
688.257	813.475
688.590	809.554
688.924	805.674
689.257	801.833
689.591	798.031
689.924	794.267
690.257	790.541
690.591	786.851
690.924	783.197
691.258	779.578
691.591	775.994
691.925	772.444
692.258	768.926
692.591	765.441
692.925	761.987
693.258	758.565
693.592	755.173
693.925	751.810
694.259	748.476
694.592	745.171
694.925	741.893
695.259	738.642
695.592	735.418
695.926	732.219
696.259	729.045
696.593	725.896
696.926	722.771
697.260	719.668
697.593	716.589
697.926	713.531
698.260	710.495
698.593	707.480
698.927	704.485
699.260	701.510
699.594	698.554
699.927	695.616
700.260	692.697
700.594	689.795
700.927	686.910
701.261	684.041
701.594	681.188
701.928	678.350
702.261	675.527
702.594	672.718
702.928	669.923
703.261	667.141
703.595	664.372
703.928	661.615
704.262	658.869
704.595	656.135
704.928	653.412
705.262	650.699
705.595	647.995
705.929	645.302
706.262	642.617
706.596	639.940
706.929	637.271
707.262	634.610
707.596	631.957
707.929	629.309
708.263	626.669
708.596	624.034
708.930	621.404
709.263	618.780
709.596	616.161
709.930	613.545
710.263	610.934
710.597	608.327
710.930	605.722
711.264	603.121
711.597	600.522
711.931	597.925
712.264	595.331
712.597	592.738
712.931	590.146
713.264	587.555
713.598	584.965
713.931	582.375
714.265	579.786
714.598	577.196
714.931	574.606
715.265	572.015
715.598	569.424
715.932	566.831
716.265	564.237
716.599	561.641
716.932	559.043
717.265	556.444
717.599	553.842
717.932	551.238
718.266	548.631
718.599	546.022
718.933	543.409
719.266	540.794
719.599	538.175
719.933	535.553
720.266	532.928
720.600	530.299
720.933	527.666
721.267	525.029
721.600	522.389
721.933	519.744
722.267	517.095
722.600	514.442
722.934	511.785
723.267	509.124
723.601	506.458
723.934	503.788
724.267	501.114
724.601	498.435
724.934	495.751
725.268	493.063
725.601	490.371
725.935	487.674
726.268	484.972
726.602	482.266
726.935	479.556
727.268	476.841
727.602	474.122
727.935	471.398
728.269	468.671
728.602	465.938
728.936	463.202
729.269	460.462
729.602	457.718
729.936	454.969
730.269	452.217
730.603	449.461
730.936	446.702
731.270	443.938
731.603	441.172
731.936	438.402
732.270	435.629
732.603	432.852
732.937	430.073
733.270	427.291
733.604	424.506
733.937	421.719
734.270	418.929
734.604	416.137
734.937	413.343
735.271	410.547
735.604	407.749
735.938	404.950
736.271	402.149
736.604	399.347
736.938	396.544
737.271	393.741
737.605	390.936
737.938	388.131
738.272	385.326
738.605	382.520
738.938	379.715
739.272	376.910
739.605	374.105
739.939	371.301
740.272	368.498
740.606	365.697
740.939	362.896
741.273	360.097
741.606	357.300
741.939	354.505
742.273	351.712
742.606	348.921
742.940	346.133
743.273	343.348
743.607	340.566
743.940	337.787
744.273	335.012
744.607	332.240
744.940	329.473
745.274	326.710
745.607	323.951
745.941	321.196
746.274	318.447
746.607	315.703
746.941	312.964
747.274	310.230
747.608	307.502
747.941	304.781
748.275	302.065
748.608	299.356
748.941	296.653
749.275	293.958
749.608	291.269
749.942	288.588
750.275	285.914
750.609	283.248
750.942	280.589
751.275	277.939
751.609	275.298
751.942	272.664
752.276	270.040
752.609	267.425
752.943	264.818
753.276	262.221
753.609	259.634
753.943	257.056
754.276	254.488
754.610	251.931
754.943	249.383
755.277	246.846
755.610	244.320
755.944	241.805
756.277	239.301
756.610	236.807
756.944	234.326
757.277	231.856
757.611	229.397
757.944	226.951
758.278	224.516
758.611	222.094
758.944	219.684
759.278	217.286
759.611	214.901
759.945	212.529
760.278	210.170
760.612	207.824
760.945	205.491
761.278	203.171
761.612	200.865
761.945	198.572
762.279	196.293
762.612	194.028
762.946	191.777
763.279	189.540
763.612	187.317
763.946	185.109
764.279	182.915
764.613	180.735
764.946	178.570
765.280	176.419
765.613	174.283
765.946	172.162
766.280	170.056
766.613	167.965
766.947	165.889
767.280	163.828
767.614	161.782
767.947	159.752
768.280	157.737
768.614	155.737
768.947	153.753
769.281	151.784
769.614	149.831
769.948	147.893
770.281	145.971
770.615	144.065
770.948	142.174
771.281	140.300
771.615	138.441
771.948	136.597
772.282	134.770
772.615	132.958
772.949	131.162
773.282	129.382
773.615	127.618
773.949	125.870
774.282	124.138
774.616	122.421
774.949	120.721
775.283	119.036
775.616	117.367
775.949	115.714
776.283	114.077
776.616	112.456
776.950	110.851
777.283	109.261
777.617	107.688
777.950	106.129
778.283	104.587
778.617	103.061
778.950	101.550
779.284	100.054
779.617	98.575
779.951	97.110
780.284	95.662
780.617	94.228
780.951	92.811
781.284	91.408
781.618	90.021
781.951	88.649
782.285	87.292
782.618	85.951
782.951	84.624
783.285	83.313
783.618	82.016
783.952	80.735
784.285	79.468
784.619	78.216
784.952	76.979
785.286	75.756
785.619	74.548
785.952	73.354
786.286	72.175
786.619	71.010
786.953	69.859
787.286	68.723
787.620	67.600
787.953	66.491
788.286	65.397
788.620	64.316
788.953	63.249
789.287	62.195
789.620	61.155
789.954	60.128
790.287	59.115
790.620	58.115
790.954	57.129
791.287	56.155
791.621	55.194
791.954	54.246
792.288	53.311
792.621	52.389
792.954	51.479
793.288	50.582
793.621	49.697
793.955	48.824
794.288	47.964
794.622	47.115
794.955	46.279
795.288	45.454
795.622	44.641
795.955	43.840
796.289	43.050
796.622	42.272
796.956	41.505
797.289	40.750
797.623	40.005
797.956	39.272
798.289	38.549
798.623	37.837
798.956	37.136
799.290	36.446
799.623	35.766
799.957	35.096
800.290	34.437
800.623	33.788
800.957	33.149
801.290	32.520
801.624	31.900
801.957	31.291
802.291	30.691
802.624	30.101
802.957	29.520
803.291	28.948
803.624	28.385
803.958	27.832
804.291	27.288
804.625	26.752
804.958	26.225
805.291	25.707
805.625	25.198
805.958	24.697
806.292	24.204
806.625	23.720
806.959	23.244
807.292	22.776
807.625	22.316
807.959	21.863
808.292	21.419
808.626	20.982
808.959	20.553
809.293	20.131
809.626	19.716
809.959	19.309
810.293	18.909
810.626	18.516
810.960	18.130
811.293	17.751
811.627	17.378
811.960	17.013
812.294	16.654
812.627	16.301
812.960	15.955
813.294	15.615
813.627	15.281
813.961	14.954
814.294	14.633
814.628	14.317
814.961	14.008
815.294	13.704
815.628	13.406
815.961	13.113
816.295	12.826
816.628	12.545
816.962	12.269
817.295	11.998
817.628	11.733
817.962	11.472
818.295	11.217
818.629	10.966
818.962	10.721
819.296	10.480
819.629	10.244
819.962	10.013
820.296	9.786
820.629	9.563
820.963	9.346
821.296	9.132
821.630	8.923
821.963	8.718
822.296	8.517
822.630	8.320
822.963	8.128
823.297	7.939
823.630	7.754
823.964	7.573
824.297	7.395
824.630	7.222
824.964	7.052
825.297	6.885
825.631	6.722
825.964	6.562
826.298	6.406
826.631	6.253
826.965	6.104
827.298	5.957
827.631	5.814
827.965	5.674
828.298	5.536
828.632	5.402
828.965	5.271
829.299	5.142
829.632	5.016
829.965	4.893
830.299	4.773
830.632	4.655
830.966	4.540
831.299	4.428
831.633	4.318
831.966	4.211
832.299	4.105
832.633	4.003
832.966	3.902
833.300	3.804
833.633	3.708
833.967	3.614
834.300	3.523
834.633	3.433
834.967	3.346
835.300	3.260
835.634	3.177
835.967	3.095
836.301	3.016
836.634	2.938
836.967	2.862
837.301	2.788
837.634	2.715
837.968	2.644
838.301	2.575
838.635	2.508
838.968	2.442
839.301	2.378
839.635	2.315
839.968	2.254
840.302	2.194
840.635	2.136
840.969	2.079
841.302	2.024
841.636	1.969
841.969	1.917
842.302	1.865
842.636	1.815
842.969	1.766
843.303	1.718
843.636	1.671
843.970	1.626
844.303	1.582
844.636	1.538
844.970	1.496
845.303	1.455
845.637	1.415
845.970	1.376
846.304	1.338
846.637	1.301
846.970	1.265
847.304	1.229
847.637	1.195
847.971	1.162
848.304	1.129
848.638	1.097
848.971	1.067
849.304	1.036
849.638	1.007
849.971	0.979
850.305	0.951
850.638	0.924
850.972	0.897
851.305	0.872
851.638	0.847
851.972	0.822
852.305	0.799
852.639	0.776
852.972	0.753
853.306	0.731
853.639	0.710
853.972	0.689
854.306	0.669
854.639	0.650
854.973	0.631
855.306	0.612
855.640	0.594
855.973	0.576
856.307	0.559
856.640	0.543
856.973	0.527
857.307	0.511
857.640	0.496
857.974	0.481
858.307	0.467
858.641	0.453
858.974	0.439
859.307	0.426
859.641	0.413
859.974	0.400
860.308	0.388
860.641	0.376
860.975	0.365
861.308	0.354
861.641	0.343
861.975	0.332
862.308	0.322
862.642	0.312
862.975	0.303
863.309	0.293
863.642	0.284
863.975	0.275
864.309	0.267
864.642	0.259
864.976	0.250
865.309	0.243
865.643	0.235
865.976	0.228
866.309	0.220
866.643	0.214
866.976	0.207
867.310	0.200
867.643	0.194
867.977	0.188
868.310	0.182
868.643	0.176
868.977	0.170
869.310	0.165
869.644	0.160
869.977	0.154
870.311	0.149
870.644	0.145
870.978	0.140
871.311	0.135
871.644	0.131
871.978	0.127
872.311	0.123
872.645	0.119
872.978	0.115
873.312	0.111
873.645	0.107
873.978	0.104
874.312	0.100
874.645	0.097
874.979	0.094
875.312	0.091
875.646	0.088
875.979	0.085
876.312	0.082
876.646	0.079
876.979	0.076
877.313	0.074
877.646	0.071
877.980	0.069
878.313	0.067
878.646	0.064
878.980	0.062
879.313	0.060
879.647	0.058
879.980	0.056
880.314	0.054
880.647	0.052
880.980	0.051
881.314	0.049
881.647	0.047
881.981	0.046
882.314	0.044
882.648	0.042
882.981	0.041
883.314	0.040
883.648	0.038
883.981	0.037
884.315	0.036
884.648	0.034
884.982	0.033
885.315	0.032
885.649	0.031
885.982	0.030
886.315	0.029
886.649	0.028
886.982	0.027
887.316	0.026
887.649	0.025
887.983	0.024
888.316	0.023
888.649	0.022
888.983	0.021
889.316	0.021
889.650	0.020
889.983	0.019
890.317	0.019
890.650	0.018
890.983	0.017
891.317	0.017
891.650	0.016
891.984	0.015
892.317	0.015
892.651	0.014
892.984	0.014
893.317	0.013
893.651	0.013
893.984	0.012
894.318	0.012
894.651	0.011
894.985	0.011
895.318	0.011
895.651	0.010
895.985	0.010
896.318	0.009
896.652	0.009
896.985	0.009
897.319	0.008
897.652	0.008
897.985	0.008
898.319	0.008
898.652	0.007
898.986	0.007
899.319	0.007
899.653	0.006
899.986	0.006
900.320	0.006
900.653	0.006
900.986	0.006
901.320	0.005
901.653	0.005
901.987	0.005
902.320	0.005
902.654	0.005
902.987	0.004
903.320	0.004
903.654	0.004
903.987	0.004
904.321	0.004
904.654	0.004
904.988	0.003
905.321	0.003
905.654	0.003
905.988	0.003
906.321	0.003
906.655	0.003
906.988	0.003
907.322	0.003
907.655	0.003
907.988	0.002
908.322	0.002
908.655	0.002
908.989	0.002
909.322	0.002
909.656	0.002
909.989	0.002
910.322	0.002
910.656	0.002
910.989	0.002
911.323	0.002
911.656	0.002
911.990	0.001
912.323	0.001
912.656	0.001
912.990	0.001
913.323	0.001
913.657	0.001
913.990	0.001
914.324	0.001
914.657	0.001
914.991	0.001
915.324	0.001
915.657	0.001
915.991	0.001
916.324	0.001
916.658	0.001
916.991	0.001
917.325	0.001
917.658	0.001
917.991	0.001
918.325	0.001
918.658	0.001
918.992	0.001
919.325	0.001
919.659	0.001
919.992	0.001
920.325	0.001
920.659	0.000
920.992	0.000
921.326	0.000
921.659	0.000
921.993	0.000
922.326	0.000
922.659	0.000
922.993	0.000
923.326	0.000
923.660	0.000
923.993	0.000
924.327	0.000
924.660	0.000
924.993	0.000
925.327	0.000
925.660	0.000
925.994	0.000
926.327	0.000
926.661	0.000
926.994	0.000
927.327	0.000
927.661	0.000
927.994	0.000
928.328	0.000
928.661	0.000
928.995	0.000
929.328	0.000
929.662	0.000
929.995	0.000
930.328	0.000
930.662	0.000
930.995	0.000
931.329	0.000
931.662	0.000
931.996	0.000
932.329	0.000
932.662	0.000
932.996	0.000
933.329	0.000
933.663	0.000
933.996	0.000
934.330	0.000
934.663	0.000
934.996	0.000
935.330	0.000
935.663	0.000
935.997	0.000
936.330	0.000
936.664	0.000
936.997	0.000
937.330	0.000
937.664	0.000
937.997	0.000
938.331	0.000
938.664	0.000
938.998	0.000
939.331	0.000
939.664	0.000
939.998	0.000
940.331	0.000
940.665	0.000
940.998	0.000
941.332	0.000
941.665	0.000
941.998	0.000
942.332	0.000
942.665	0.000
942.999	0.000
943.332	0.000
943.666	0.000
943.999	0.000
944.333	0.000
944.666	0.000
944.999	0.000
945.333	0.000
945.666	0.000
946.000	0.000
946.333	0.000
946.667	0.000
947.000	0.000
947.333	0.000
947.667	0.000
948.000	0.000
948.334	0.000
948.667	0.000
949.001	0.000
949.334	0.000
949.667	0.000
950.001	0.000
950.334	0.000
950.668	0.000
951.001	0.000
951.335	0.000
951.668	0.000
952.001	0.000
952.335	0.000
952.668	0.000
953.002	0.000
953.335	0.000
953.669	0.000
954.002	0.000
954.335	0.000
954.669	0.000
955.002	0.000
955.336	0.000
955.669	0.000
956.003	0.000
956.336	0.000
956.669	0.000
957.003	0.000
957.336	0.000
957.670	0.000
958.003	0.000
958.337	0.000
958.670	0.000
959.004	0.000
959.337	0.000
959.670	0.000
960.004	0.000
960.337	0.000
960.671	0.000
961.004	0.000
961.338	0.000
961.671	0.000
962.004	0.000
962.338	0.000
962.671	0.000
963.005	0.000
963.338	0.000
963.672	0.000
964.005	0.000
964.338	0.000
964.672	0.000
965.005	0.000
965.339	0.000
965.672	0.000
966.006	0.000
966.339	0.000
966.672	0.000
967.006	0.000
967.339	0.000
967.673	0.000
968.006	0.000
968.340	0.000
968.673	0.000
969.006	0.000
969.340	0.000
969.673	0.000
970.007	0.000
970.340	0.000
970.674	0.000
971.007	0.000
971.340	0.000
971.674	0.000
972.007	0.000
972.341	0.000
972.674	0.000
973.008	0.000
973.341	0.000
973.675	0.000
974.008	0.000
974.341	0.000
974.675	0.000
975.008	0.000
975.342	0.000
975.675	0.000
976.009	0.000
976.342	0.000
976.675	0.000
977.009	0.000
977.342	0.000
977.676	0.000
978.009	0.000
978.343	0.000
978.676	0.000
979.009	0.000
979.343	0.000
979.676	0.000
980.010	0.000
980.343	0.000
980.677	0.000
981.010	0.000
981.343	0.000
981.677	0.000
982.010	0.000
982.344	0.000
982.677	0.000
983.011	0.000
983.344	0.000
983.677	0.000
984.011	0.000
984.344	0.000
984.678	0.000
985.011	0.000
985.345	0.000
985.678	0.000
986.011	0.000
986.345	0.000
986.678	0.000
987.012	0.000
987.345	0.000
987.679	0.000
988.012	0.000
988.346	0.000
988.679	0.000
989.012	0.000
989.346	0.000
989.679	0.000
990.013	0.000
990.346	0.000
990.680	0.000
991.013	0.000
991.346	0.000
991.680	0.000
992.013	0.000
992.347	0.000
992.680	0.000
993.014	0.000
993.347	0.000
993.680	0.000
994.014	0.000
994.347	0.000
994.681	0.000
995.014	0.000
995.348	0.000
995.681	0.000
996.014	0.000
996.348	0.000
996.681	0.000
997.015	0.000
997.348	0.000
997.682	0.000
998.015	0.000
998.348	0.000
998.682	0.000
999.015	0.000
999.349	0.000
999.682	0.000
1000.016	0.000
1000.349	0.000
1000.682	0.000
1001.016	0.000
1001.349	0.000
1001.683	0.000
1002.016	0.000
1002.350	0.000
1002.683	0.000
1003.017	0.000
1003.350	0.000
1003.683	0.000
1004.017	0.000
1004.350	0.000
1004.684	0.000
1005.017	0.000
1005.351	0.000
1005.684	0.000
1006.017	0.000
1006.351	0.000
1006.684	0.000
1007.018	0.000
1007.351	0.000
1007.685	0.000
1008.018	0.000
1008.351	0.000
1008.685	0.000
1009.018	0.000
1009.352	0.000
1009.685	0.000
1010.019	0.000
1010.352	0.000
1010.685	0.000
1011.019	0.000
1011.352	0.000
1011.686	0.000
1012.019	0.000
1012.353	0.000
1012.686	0.000
1013.019	0.000
1013.353	0.000
1013.686	0.000
1014.020	0.000
1014.353	0.000
1014.687	0.000
1015.020	0.000
1015.353	0.000
1015.687	0.000
1016.020	0.000
1016.354	0.000
1016.687	0.000
1017.021	0.000
1017.354	0.000
1017.688	0.000
1018.021	0.000
1018.354	0.000
1018.688	0.000
1019.021	0.000
1019.355	0.000
1019.688	0.000
1020.022	0.000
1020.355	0.000
1020.688	0.000
1021.022	0.000
1021.355	0.000
1021.689	0.000
1022.022	0.000
1022.356	0.000
1022.689	0.000
