Data from repetition_0.txt_16-47-09-365.txt Node
Date: Sun Jun 13 23:27:09 CET 2021
User: fcossio
Spectrometer: FLMS15016
Trigger mode: 0
Integration Time (sec): 3.000000E-1Scans to average: 1
Electric dark correction enabled: true
Nonlinearity correction enabled: false
Boxcar width: 0
XAxis mode: Wavelengths
Number of Pixels in Spectrum: 2048
>>>>>Begin Spectral Data<<<<<
340.154	1012.830
340.487	1013.180
340.821	1016.201
341.154	1014.842
341.488	1014.790
341.821	1015.457
342.155	1015.022
342.488	1015.910
342.821	1016.261
343.155	1015.395
343.488	1017.672
343.822	1016.389
344.155	1017.065
344.489	1018.355
344.822	1017.069
345.155	1018.282
345.489	1017.579
345.822	1018.822
346.156	1019.529
346.489	1019.485
346.823	1019.201
347.156	1019.581
347.490	1020.080
347.823	1020.971
348.156	1019.568
348.490	1021.230
348.823	1021.084
349.157	1022.292
349.490	1021.590
349.824	1021.448
350.157	1021.874
350.490	1023.179
350.824	1022.674
351.157	1023.858
351.491	1024.069
351.824	1023.771
352.158	1023.486
352.491	1025.352
352.824	1025.661
353.158	1023.864
353.491	1025.969
353.825	1025.876
354.158	1025.172
354.492	1026.326
354.825	1025.806
355.158	1025.894
355.492	1026.754
355.825	1027.292
356.159	1027.520
356.492	1027.222
356.826	1028.567
357.159	1027.926
357.492	1028.151
357.826	1028.911
358.159	1028.418
358.493	1029.789
358.826	1029.611
359.160	1030.189
359.493	1029.549
359.826	1030.260
360.160	1030.312
360.493	1031.212
360.827	1031.639
361.160	1032.544
361.494	1032.283
361.827	1032.204
362.161	1032.162
362.494	1032.222
362.827	1032.348
363.161	1033.783
363.494	1033.576
363.828	1033.479
364.161	1032.568
364.495	1035.146
364.828	1034.523
365.161	1033.731
365.495	1034.804
365.828	1034.175
366.162	1035.161
366.495	1034.447
366.829	1035.184
367.162	1036.077
367.495	1036.045
367.829	1036.456
368.162	1036.480
368.496	1036.871
368.829	1037.927
369.163	1036.730
369.496	1037.615
369.829	1037.767
370.163	1038.923
370.496	1038.405
370.830	1039.650
371.163	1038.580
371.497	1038.440
371.830	1039.666
372.163	1039.136
372.497	1040.368
372.830	1040.244
373.164	1040.621
373.497	1040.482
373.831	1041.018
374.164	1042.581
374.497	1041.206
374.831	1042.015
375.164	1042.269
375.498	1042.848
375.831	1042.041
376.165	1043.173
376.498	1043.356
376.832	1041.965
377.165	1043.044
377.498	1043.014
377.832	1043.561
378.165	1043.833
378.499	1044.812
378.832	1045.110
379.166	1044.806
379.499	1044.675
379.832	1044.752
380.166	1046.096
380.499	1045.084
380.833	1046.934
381.166	1046.082
381.500	1045.415
381.833	1046.159
382.166	1047.213
382.500	1046.550
382.833	1047.613
383.167	1047.592
383.500	1047.349
383.834	1048.022
384.167	1047.627
384.500	1047.873
384.834	1048.287
385.167	1048.892
385.501	1048.926
385.834	1048.504
386.168	1051.291
386.501	1050.543
386.834	1049.180
387.168	1051.007
387.501	1050.814
387.835	1049.943
388.168	1051.171
388.502	1051.339
388.835	1051.276
389.168	1051.239
389.502	1052.325
389.835	1051.875
390.169	1053.631
390.502	1052.405
390.836	1051.876
391.169	1052.784
391.503	1052.965
391.836	1052.281
392.169	1053.442
392.503	1054.506
392.836	1053.957
393.170	1054.462
393.503	1054.035
393.837	1054.308
394.170	1055.191
394.503	1054.778
394.837	1056.293
395.170	1055.216
395.504	1055.114
395.837	1056.878
396.171	1057.053
396.504	1056.692
396.837	1056.518
397.171	1056.450
397.504	1057.614
397.838	1057.866
398.171	1057.082
398.505	1058.247
398.838	1058.631
399.171	1057.643
399.505	1058.377
399.838	1058.092
400.172	1058.033
400.505	1059.157
400.839	1059.642
401.172	1059.645
401.505	1059.569
401.839	1060.106
402.172	1059.968
402.506	1059.774
402.839	1061.224
403.173	1060.928
403.506	1060.543
403.839	1060.717
404.173	1061.209
404.506	1061.307
404.840	1062.576
405.173	1061.378
405.507	1062.146
405.840	1062.213
406.174	1062.610
406.507	1063.068
406.840	1062.400
407.174	1063.285
407.507	1062.607
407.841	1063.900
408.174	1064.126
408.508	1063.519
408.841	1063.589
409.174	1064.571
409.508	1063.869
409.841	1065.447
410.175	1065.026
410.508	1064.809
410.842	1065.679
411.175	1065.582
411.508	1065.537
411.842	1065.964
412.175	1066.751
412.509	1065.611
412.842	1066.885
413.176	1065.605
413.509	1067.211
413.842	1067.181
414.176	1066.463
414.509	1067.403
414.843	1067.784
415.176	1067.629
415.510	1067.995
415.843	1067.818
416.176	1068.465
416.510	1068.655
416.843	1068.838
417.177	1068.667
417.510	1068.849
417.844	1068.680
418.177	1069.527
418.510	1069.145
418.844	1069.804
419.177	1069.286
419.511	1069.626
419.844	1070.441
420.178	1071.204
420.511	1071.383
420.845	1071.217
421.178	1071.145
421.511	1071.665
421.845	1071.401
422.178	1071.413
422.512	1071.441
422.845	1072.180
423.179	1073.132
423.512	1072.178
423.845	1072.391
424.179	1072.959
424.512	1072.274
424.846	1073.143
425.179	1072.549
425.513	1072.910
425.846	1074.186
426.179	1074.009
426.513	1074.523
426.846	1073.861
427.180	1074.642
427.513	1075.186
427.847	1074.313
428.180	1075.391
428.513	1074.351
428.847	1074.870
429.180	1076.303
429.514	1075.489
429.847	1075.815
430.181	1075.575
430.514	1076.160
430.847	1075.113
431.181	1075.537
431.514	1076.517
431.848	1075.413
432.181	1076.812
432.515	1076.340
432.848	1076.467
433.181	1076.911
433.515	1076.882
433.848	1077.760
434.182	1077.161
434.515	1077.602
434.849	1078.525
435.182	1077.736
435.516	1077.779
435.849	1078.326
436.182	1079.393
436.516	1078.574
436.849	1079.293
437.183	1078.531
437.516	1079.388
437.850	1079.806
438.183	1079.734
438.516	1080.033
438.850	1080.182
439.183	1079.639
439.517	1079.586
439.850	1080.479
440.184	1078.919
440.517	1080.671
440.850	1080.231
441.184	1080.313
441.517	1080.863
441.851	1080.131
442.184	1081.337
442.518	1081.638
442.851	1081.707
443.184	1082.200
443.518	1082.477
443.851	1081.350
444.185	1081.520
444.518	1081.899
444.852	1082.616
445.185	1082.824
445.518	1082.347
445.852	1082.039
446.185	1082.177
446.519	1083.444
446.852	1083.983
447.186	1083.460
447.519	1084.287
447.852	1084.708
448.186	1084.028
448.519	1083.079
448.853	1084.154
449.186	1084.829
449.520	1085.468
449.853	1084.728
450.187	1084.452
450.520	1084.717
450.853	1085.652
451.187	1083.258
451.520	1084.862
451.854	1085.221
452.187	1085.224
452.521	1085.331
452.854	1085.559
453.187	1085.675
453.521	1085.705
453.854	1085.991
454.188	1085.163
454.521	1085.741
454.855	1086.416
455.188	1086.236
455.521	1086.597
455.855	1086.405
456.188	1087.072
456.522	1087.859
456.855	1087.170
457.189	1087.285
457.522	1087.894
457.855	1086.977
458.189	1088.142
458.522	1088.135
458.856	1087.500
459.189	1087.836
459.523	1087.624
459.856	1088.231
460.189	1089.392
460.523	1088.815
460.856	1088.496
461.190	1088.799
461.523	1088.984
461.857	1088.726
462.190	1088.959
462.523	1088.600
462.857	1088.911
463.190	1089.531
463.524	1089.877
463.857	1090.114
464.191	1089.520
464.524	1089.344
464.858	1089.456
465.191	1089.587
465.524	1088.809
465.858	1089.404
466.191	1090.623
466.525	1090.430
466.858	1091.715
467.192	1091.100
467.525	1091.887
467.858	1090.150
468.192	1090.581
468.525	1091.797
468.859	1090.967
469.192	1091.711
469.526	1092.365
469.859	1092.133
470.192	1091.266
470.526	1091.967
470.859	1092.254
471.193	1090.651
471.526	1092.583
471.860	1092.279
472.193	1092.221
472.526	1092.558
472.860	1091.918
473.193	1092.832
473.527	1092.875
473.860	1092.601
474.194	1092.385
474.527	1093.141
474.860	1092.729
475.194	1093.085
475.527	1091.895
475.861	1093.651
476.194	1093.585
476.528	1092.799
476.861	1094.088
477.194	1093.131
477.528	1094.392
477.861	1094.329
478.195	1094.681
478.528	1093.432
478.862	1093.870
479.195	1094.528
479.529	1093.279
479.862	1093.702
480.195	1093.834
480.529	1094.474
480.862	1095.138
481.196	1094.941
481.529	1095.135
481.863	1095.408
482.196	1095.120
482.529	1093.888
482.863	1094.919
483.196	1094.333
483.530	1095.055
483.863	1093.947
484.197	1094.810
484.530	1095.648
484.863	1096.093
485.197	1095.053
485.530	1095.136
485.864	1095.203
486.197	1095.719
486.531	1095.870
486.864	1096.478
487.197	1095.110
487.531	1096.810
487.864	1095.008
488.198	1095.572
488.531	1096.428
488.865	1096.062
489.198	1096.510
489.531	1096.519
489.865	1096.680
490.198	1096.520
490.532	1097.341
490.865	1097.040
491.199	1097.099
491.532	1096.550
491.865	1097.037
492.199	1098.299
492.532	1097.075
492.866	1098.007
493.199	1097.221
493.533	1097.930
493.866	1097.511
494.200	1096.787
494.533	1097.449
494.866	1096.962
495.200	1097.206
495.533	1098.175
495.867	1097.041
496.200	1098.159
496.534	1097.216
496.867	1097.834
497.200	1097.825
497.534	1098.491
497.867	1098.375
498.201	1098.693
498.534	1098.470
498.868	1098.543
499.201	1098.011
499.534	1098.079
499.868	1098.935
500.201	1098.308
500.535	1098.573
500.868	1098.800
501.202	1098.536
501.535	1099.497
501.868	1099.698
502.202	1098.888
502.535	1098.935
502.869	1099.730
503.202	1099.349
503.536	1098.546
503.869	1098.863
504.202	1100.161
504.536	1098.936
504.869	1099.792
505.203	1098.945
505.536	1099.649
505.870	1099.738
506.203	1099.116
506.536	1100.528
506.870	1098.827
507.203	1100.579
507.537	1099.302
507.870	1099.766
508.204	1100.269
508.537	1099.949
508.871	1099.772
509.204	1099.663
509.537	1100.051
509.871	1100.306
510.204	1100.170
510.538	1099.617
510.871	1099.834
511.205	1101.397
511.538	1099.388
511.871	1100.093
512.205	1100.950
512.538	1099.789
512.872	1101.131
513.205	1099.460
513.539	1100.073
513.872	1100.821
514.205	1101.086
514.539	1100.276
514.872	1100.101
515.206	1100.945
515.539	1100.641
515.873	1101.796
516.206	1100.622
516.539	1100.587
516.873	1101.345
517.206	1101.874
517.540	1101.068
517.873	1101.666
518.207	1100.845
518.540	1100.596
518.873	1100.527
519.207	1100.530
519.540	1100.646
519.874	1101.628
520.207	1100.919
520.541	1101.495
520.874	1102.085
521.207	1100.934
521.541	1101.710
521.874	1100.996
522.208	1100.860
522.541	1100.940
522.875	1102.196
523.208	1102.211
523.542	1101.716
523.875	1101.520
524.208	1101.898
524.542	1101.110
524.875	1100.731
525.209	1101.158
525.542	1101.894
525.876	1102.071
526.209	1101.201
526.542	1100.589
526.876	1100.692
527.209	1101.120
527.543	1101.786
527.876	1102.086
528.210	1101.918
528.543	1101.704
528.876	1101.402
529.210	1101.696
529.543	1101.656
529.877	1102.291
530.210	1101.593
530.544	1101.357
530.877	1102.163
531.210	1100.991
531.544	1100.675
531.877	1101.659
532.211	1101.798
532.544	1101.294
532.878	1102.389
533.211	1101.037
533.544	1101.716
533.878	1101.961
534.211	1102.140
534.545	1100.756
534.878	1100.938
535.212	1101.843
535.545	1102.193
535.878	1101.767
536.212	1101.302
536.545	1101.047
536.879	1101.470
537.212	1101.586
537.546	1101.378
537.879	1101.809
538.213	1101.975
538.546	1101.107
538.879	1100.480
539.213	1102.284
539.546	1101.547
539.880	1101.501
540.213	1101.651
540.547	1102.001
540.880	1101.819
541.213	1102.375
541.547	1102.228
541.880	1101.147
542.214	1102.148
542.547	1101.757
542.881	1101.870
543.214	1100.959
543.547	1101.328
543.881	1101.964
544.214	1101.621
544.548	1101.789
544.881	1101.127
545.215	1101.210
545.548	1101.184
545.881	1100.882
546.215	1100.264
546.548	1101.159
546.882	1100.629
547.215	1101.672
547.549	1101.031
547.882	1101.063
548.215	1101.149
548.549	1099.901
548.882	1101.163
549.216	1100.839
549.549	1101.091
549.883	1101.874
550.216	1101.240
550.549	1100.499
550.883	1101.224
551.216	1100.955
551.550	1101.521
551.883	1100.984
552.217	1100.342
552.550	1100.966
552.884	1100.788
553.217	1101.143
553.550	1100.541
553.884	1100.301
554.217	1100.746
554.551	1101.936
554.884	1100.994
555.218	1101.274
555.551	1100.477
555.884	1101.500
556.218	1100.987
556.551	1100.189
556.885	1100.809
557.218	1100.448
557.552	1099.723
557.885	1100.617
558.218	1100.484
558.552	1100.445
558.885	1100.494
559.219	1099.405
559.552	1100.908
559.886	1100.169
560.219	1099.682
560.552	1100.143
560.886	1099.964
561.219	1100.128
561.553	1099.437
561.886	1099.511
562.220	1099.438
562.553	1099.195
562.886	1099.661
563.220	1099.797
563.553	1100.519
563.887	1098.606
564.220	1099.745
564.554	1098.489
564.887	1099.134
565.220	1098.933
565.554	1099.252
565.887	1099.452
566.221	1099.899
566.554	1100.228
566.888	1099.057
567.221	1099.963
567.555	1099.653
567.888	1098.364
568.221	1099.241
568.555	1099.804
568.888	1098.597
569.222	1098.358
569.555	1098.408
569.889	1098.766
570.222	1099.610
570.555	1099.262
570.889	1098.613
571.222	1097.668
571.556	1099.060
571.889	1098.352
572.223	1098.136
572.556	1098.856
572.889	1097.361
573.223	1098.052
573.556	1098.389
573.890	1098.000
574.223	1099.064
574.557	1098.709
574.890	1098.973
575.223	1098.057
575.557	1096.721
575.890	1098.048
576.224	1098.618
576.557	1098.156
576.891	1097.640
577.224	1097.434
577.557	1098.327
577.891	1097.306
578.224	1096.922
578.558	1096.106
578.891	1097.024
579.225	1097.213
579.558	1097.220
579.892	1096.478
580.225	1096.768
580.558	1096.446
580.892	1097.128
581.225	1095.941
581.559	1096.179
581.892	1095.968
582.226	1097.006
582.559	1096.635
582.892	1096.241
583.226	1096.590
583.559	1096.383
583.893	1097.043
584.226	1095.772
584.560	1095.467
584.893	1095.932
585.226	1095.545
585.560	1095.844
585.893	1096.029
586.227	1095.548
586.560	1095.845
586.894	1094.785
587.227	1095.070
587.560	1094.880
587.894	1095.048
588.227	1095.668
588.561	1094.121
588.894	1095.293
589.228	1094.638
589.561	1094.632
589.894	1093.870
590.228	1094.972
590.561	1094.244
590.895	1094.259
591.228	1093.964
591.562	1093.928
591.895	1094.059
592.228	1093.988
592.562	1094.737
592.895	1093.727
593.229	1093.538
593.562	1093.397
593.896	1093.900
594.229	1092.483
594.563	1093.614
594.896	1092.991
595.229	1091.880
595.563	1093.592
595.896	1093.929
596.230	1092.784
596.563	1093.198
596.897	1093.359
597.230	1091.909
597.563	1092.282
597.897	1092.323
598.230	1092.809
598.564	1092.183
598.897	1092.686
599.231	1092.041
599.564	1092.275
599.897	1091.751
600.231	1092.456
600.564	1091.259
600.898	1090.870
601.231	1090.389
601.565	1090.771
601.898	1090.953
602.231	1090.669
602.565	1090.419
602.898	1089.891
603.232	1091.000
603.565	1089.674
603.899	1091.013
604.232	1090.872
604.565	1089.761
604.899	1089.905
605.232	1089.923
605.566	1089.086
605.899	1090.285
606.233	1089.296
606.566	1089.358
606.899	1089.776
607.233	1089.289
607.566	1090.304
607.900	1090.234
608.233	1088.935
608.567	1088.257
608.900	1088.816
609.234	1087.912
609.567	1088.437
609.900	1088.368
610.234	1089.032
610.567	1088.886
610.901	1088.374
611.234	1087.961
611.568	1088.450
611.901	1087.059
612.234	1087.151
612.568	1088.021
612.901	1087.664
613.235	1087.449
613.568	1086.884
613.902	1086.511
614.235	1087.127
614.568	1087.503
614.902	1086.721
615.235	1085.608
615.569	1086.301
615.902	1086.495
616.236	1086.627
616.569	1086.873
616.902	1087.016
617.236	1084.856
617.569	1085.581
617.903	1085.245
618.236	1085.781
618.570	1086.012
618.903	1085.642
619.236	1084.937
619.570	1084.730
619.903	1085.389
620.237	1084.584
620.570	1084.592
620.904	1084.675
621.237	1083.396
621.570	1085.244
621.904	1083.817
622.237	1083.934
622.571	1084.270
622.904	1084.197
623.238	1083.215
623.571	1083.131
623.905	1083.435
624.238	1083.721
624.571	1083.444
624.905	1082.479
625.238	1081.998
625.572	1082.645
625.905	1081.995
626.239	1081.843
626.572	1082.480
626.905	1082.484
627.239	1081.600
627.572	1082.601
627.906	1081.355
628.239	1081.472
628.573	1081.306
628.906	1081.006
629.239	1080.804
629.573	1080.309
629.906	1080.942
630.240	1079.925
630.573	1079.544
630.907	1080.842
631.240	1079.644
631.573	1079.288
631.907	1079.641
632.240	1078.590
632.574	1079.745
632.907	1079.834
633.241	1079.527
633.574	1079.194
633.907	1079.452
634.241	1078.255
634.574	1078.690
634.908	1078.576
635.241	1078.960
635.575	1077.279
635.908	1077.332
636.241	1076.907
636.575	1076.970
636.908	1077.887
637.242	1077.458
637.575	1077.502
637.909	1078.077
638.242	1077.158
638.576	1077.564
638.909	1075.637
639.242	1076.271
639.576	1076.216
639.909	1075.521
640.243	1074.561
640.576	1076.312
640.910	1075.362
641.243	1076.059
641.576	1074.187
641.910	1075.141
642.243	1074.179
642.577	1074.724
642.910	1074.465
643.244	1073.575
643.577	1074.049
643.910	1072.699
644.244	1073.454
644.577	1074.387
644.911	1073.723
645.244	1073.631
645.578	1073.685
645.911	1072.824
646.244	1072.917
646.578	1072.916
646.911	1072.950
647.245	1072.681
647.578	1072.249
647.912	1072.089
648.245	1072.065
648.578	1071.699
648.912	1070.776
649.245	1071.338
649.579	1070.710
649.912	1070.984
650.246	1070.321
650.579	1069.980
650.912	1070.409
651.246	1070.793
651.579	1069.780
651.913	1070.347
652.246	1070.444
652.580	1070.265
652.913	1069.666
653.247	1067.896
653.580	1068.062
653.913	1068.685
654.247	1067.448
654.580	1068.265
654.914	1068.680
655.247	1069.030
655.581	1068.503
655.914	1067.650
656.247	1067.105
656.581	1067.700
656.914	1067.427
657.248	1067.595
657.581	1066.148
657.915	1066.239
658.248	1066.453
658.581	1065.992
658.915	1065.919
659.248	1066.191
659.582	1065.667
659.915	1066.132
660.249	1064.879
660.582	1063.708
660.915	1064.476
661.249	1064.123
661.582	1063.479
661.916	1064.198
662.249	1063.323
662.583	1064.350
662.916	1063.813
663.249	1064.842
663.583	1063.330
663.916	1062.466
664.250	1061.931
664.583	1063.398
664.917	1061.874
665.250	1061.646
665.583	1061.782
665.917	1062.298
666.250	1061.715
666.584	1061.272
666.917	1060.731
667.251	1061.164
667.584	1060.525
667.918	1060.852
668.251	1059.824
668.584	1059.790
668.918	1059.571
669.251	1059.846
669.585	1059.872
669.918	1059.588
670.252	1060.860
670.585	1059.302
670.918	1058.598
671.252	1057.642
671.585	1058.739
671.919	1058.218
672.252	1057.338
672.586	1057.804
672.919	1057.885
673.252	1056.765
673.586	1057.602
673.919	1057.027
674.253	1056.372
674.586	1056.043
674.920	1056.079
675.253	1055.864
675.586	1056.036
675.920	1056.077
676.253	1055.930
676.587	1055.606
676.920	1055.319
677.254	1054.795
677.587	1053.758
677.920	1053.602
678.254	1054.545
678.587	1052.927
678.921	1054.214
679.254	1054.019
679.588	1054.065
679.921	1051.273
680.254	1051.879
680.588	1052.100
680.921	1053.010
681.255	1051.893
681.588	1051.230
681.922	1052.240
682.255	1051.590
682.589	1051.039
682.922	1050.717
683.255	1050.844
683.589	1051.565
683.922	1050.574
684.256	1050.293
684.589	1050.076
684.923	1049.706
685.256	1049.239
685.589	1049.613
685.923	1048.818
686.256	1049.270
686.590	1048.163
686.923	1047.946
687.257	1047.932
687.590	1047.874
687.923	1047.647
688.257	1046.747
688.590	1047.547
688.924	1047.442
689.257	1047.025
689.591	1046.629
689.924	1046.136
690.257	1045.534
690.591	1044.714
690.924	1045.169
691.258	1044.886
691.591	1045.670
691.925	1045.163
692.258	1045.010
692.591	1045.020
692.925	1043.650
693.258	1043.658
693.592	1043.529
693.925	1043.787
694.259	1042.691
694.592	1043.493
694.925	1042.476
695.259	1042.858
695.592	1041.464
695.926	1042.209
696.259	1041.897
696.593	1040.400
696.926	1041.341
697.260	1040.673
697.593	1041.359
697.926	1040.572
698.260	1040.273
698.593	1040.040
698.927	1038.841
699.260	1039.076
699.594	1039.906
699.927	1038.546
700.260	1038.446
700.594	1039.260
700.927	1037.432
701.261	1037.053
701.594	1037.871
701.928	1037.494
702.261	1036.085
702.594	1037.261
702.928	1035.821
703.261	1036.538
703.595	1036.372
703.928	1036.017
704.262	1035.941
704.595	1036.174
704.928	1034.931
705.262	1034.428
705.595	1034.294
705.929	1034.516
706.262	1033.004
706.596	1034.274
706.929	1034.234
707.262	1032.576
707.596	1033.471
707.929	1032.823
708.263	1033.151
708.596	1032.177
708.930	1031.437
709.263	1031.080
709.596	1031.020
709.930	1031.982
710.263	1030.551
710.597	1032.163
710.930	1030.417
711.264	1030.575
711.597	1029.939
711.931	1029.151
712.264	1029.530
712.597	1028.165
712.931	1028.677
713.264	1028.884
713.598	1027.803
713.931	1028.407
714.265	1026.982
714.598	1027.687
714.931	1027.153
715.265	1027.030
715.598	1026.960
715.932	1026.072
716.265	1025.938
716.599	1024.671
716.932	1025.667
717.265	1026.795
717.599	1025.190
717.932	1023.801
718.266	1024.285
718.599	1023.998
718.933	1024.099
719.266	1023.265
719.599	1022.632
719.933	1022.298
720.266	1023.636
720.600	1022.351
720.933	1023.093
721.267	1022.866
721.600	1021.755
721.933	1021.243
722.267	1021.616
722.600	1020.392
722.934	1020.328
723.267	1020.535
723.601	1018.958
723.934	1019.495
724.267	1019.898
724.601	1019.583
724.934	1019.058
725.268	1018.235
725.601	1018.352
725.935	1017.669
726.268	1016.485
726.602	1017.715
726.935	1017.675
727.268	1016.715
727.602	1016.039
727.935	1017.068
728.269	1015.912
728.602	1015.378
728.936	1015.843
729.269	1015.351
729.602	1014.473
729.936	1014.513
730.269	1014.780
730.603	1014.977
730.936	1012.685
731.270	1012.664
731.603	1013.543
731.936	1013.228
732.270	1012.705
732.603	1012.620
732.937	1012.146
733.270	1012.231
733.604	1011.205
733.937	1011.452
734.270	1011.030
734.604	1009.911
734.937	1009.911
735.271	1009.819
735.604	1009.226
735.938	1009.295
736.271	1008.479
736.604	1008.797
736.938	1007.688
737.271	1007.755
737.605	1007.630
737.938	1007.327
738.272	1007.209
738.605	1006.684
738.938	1007.629
739.272	1007.016
739.605	1005.674
739.939	1005.773
740.272	1005.934
740.606	1005.179
740.939	1005.127
741.273	1004.350
741.606	1003.940
741.939	1004.782
742.273	1003.654
742.606	1002.870
742.940	1003.007
743.273	1002.691
743.607	1002.335
743.940	1001.017
744.273	1000.888
744.607	1000.903
744.940	1000.485
745.274	1000.699
745.607	1000.324
745.941	1000.049
746.274	1000.117
746.607	999.375
746.941	1000.084
747.274	998.409
747.608	999.643
747.941	997.796
748.275	997.424
748.608	996.508
748.941	997.832
749.275	996.872
749.608	997.131
749.942	996.563
750.275	996.253
750.609	994.943
750.942	995.797
751.275	995.779
751.609	994.285
751.942	994.268
752.276	993.760
752.609	993.366
752.943	992.821
753.276	993.050
753.609	992.656
753.943	992.919
754.276	992.829
754.610	991.806
754.943	991.411
755.277	990.891
755.610	991.602
755.944	989.547
756.277	990.096
756.610	990.803
756.944	989.527
757.277	988.725
757.611	987.971
757.944	988.409
758.278	988.170
758.611	988.012
758.944	987.066
759.278	987.264
759.611	987.477
759.945	986.457
760.278	986.530
760.612	985.868
760.945	985.266
761.278	985.845
761.612	986.147
761.945	985.224
762.279	984.405
762.612	984.647
762.946	983.255
763.279	983.993
763.612	983.190
763.946	983.823
764.279	983.004
764.613	981.730
764.946	982.212
765.280	981.145
765.613	982.148
765.946	981.033
766.280	979.418
766.613	980.993
766.947	980.352
767.280	979.250
767.614	978.881
767.947	978.710
768.280	979.282
768.614	977.984
768.947	977.672
769.281	977.637
769.614	976.687
769.948	976.901
770.281	975.784
770.615	975.233
770.948	976.113
771.281	975.832
771.615	975.394
771.948	975.628
772.282	974.700
772.615	974.461
772.949	972.999
773.282	973.550
773.615	972.080
773.949	973.848
774.282	971.771
774.616	972.272
774.949	972.060
775.283	971.541
775.616	971.624
775.949	970.600
776.283	970.828
776.616	969.638
776.950	970.510
777.283	969.612
777.617	968.800
777.950	968.203
778.283	969.249
778.617	966.993
778.950	966.795
779.284	966.724
779.617	966.004
779.951	966.243
780.284	965.397
780.617	965.715
780.951	964.977
781.284	965.579
781.618	964.980
781.951	963.988
782.285	963.060
782.618	962.820
782.951	963.503
783.285	962.693
783.618	962.644
783.952	962.466
784.285	962.425
784.619	960.034
784.952	961.275
785.286	960.925
785.619	960.612
785.952	959.237
786.286	959.523
786.619	959.032
786.953	958.982
787.286	959.555
787.620	958.821
787.953	957.655
788.286	957.053
788.620	957.671
788.953	955.757
789.287	955.815
789.620	956.275
789.954	955.683
790.287	955.841
790.620	954.504
790.954	954.393
791.287	953.709
791.621	953.724
791.954	953.190
792.288	952.408
792.621	952.386
792.954	951.896
793.288	951.042
793.621	951.827
793.955	950.733
794.288	949.846
794.622	950.044
794.955	950.029
795.288	949.829
795.622	949.077
795.955	948.639
796.289	948.225
796.622	947.176
796.956	946.331
797.289	946.823
797.623	946.561
797.956	946.670
798.289	946.379
798.623	945.627
798.956	946.264
799.290	945.822
799.623	944.464
799.957	944.408
800.290	944.565
800.623	942.687
800.957	942.926
801.290	942.511
801.624	942.450
801.957	942.475
802.291	941.599
802.624	941.335
802.957	941.354
803.291	941.294
803.624	939.827
803.958	939.861
804.291	940.574
804.625	939.411
804.958	938.501
805.291	938.405
805.625	937.586
805.958	938.017
806.292	937.135
806.625	935.906
806.959	936.027
807.292	936.573
807.625	936.370
807.959	934.057
808.292	934.751
808.626	934.207
808.959	934.442
809.293	933.513
809.626	932.964
809.959	932.895
810.293	932.005
810.626	931.969
810.960	932.322
811.293	932.515
811.627	931.124
811.960	930.212
812.294	930.119
812.627	929.307
812.960	929.733
813.294	929.390
813.627	928.508
813.961	927.613
814.294	928.262
814.628	927.736
814.961	926.186
815.294	926.258
815.628	925.849
815.961	925.731
816.295	925.790
816.628	924.905
816.962	923.697
817.295	924.152
817.628	924.781
817.962	922.807
818.295	922.772
818.629	921.949
818.962	922.783
819.296	922.352
819.629	922.453
819.962	920.692
820.296	920.050
820.629	919.293
820.963	920.161
821.296	919.324
821.630	918.790
821.963	918.606
822.296	917.576
822.630	918.982
822.963	916.867
823.297	917.209
823.630	915.778
823.964	916.911
824.297	914.654
824.630	914.772
824.964	914.968
825.297	914.742
825.631	914.594
825.964	914.957
826.298	913.103
826.631	912.948
826.965	912.654
827.298	912.545
827.631	912.274
827.965	911.199
828.298	911.914
828.632	911.642
828.965	909.831
829.299	910.410
829.632	909.075
829.965	909.750
830.299	909.475
830.632	907.860
830.966	907.377
831.299	907.141
831.633	907.003
831.966	906.774
832.299	906.499
832.633	905.734
832.966	905.682
833.300	905.379
833.633	903.689
833.967	903.807
834.300	903.742
834.633	902.187
834.967	902.000
835.300	902.029
835.634	901.965
835.967	901.641
836.301	900.562
836.634	901.491
836.967	899.157
837.301	899.816
837.634	898.634
837.968	899.418
838.301	898.681
838.635	898.145
838.968	898.249
839.301	897.804
839.635	896.589
839.968	896.218
840.302	896.680
840.635	896.456
840.969	894.901
841.302	894.451
841.636	893.961
841.969	895.054
842.302	894.010
842.636	893.077
842.969	893.014
843.303	892.638
843.636	891.108
843.970	891.306
844.303	890.642
844.636	890.261
844.970	890.751
845.303	889.838
845.637	889.871
845.970	889.794
846.304	888.086
846.637	888.774
846.970	887.905
847.304	888.263
847.637	887.144
847.971	885.670
848.304	886.024
848.638	884.798
848.971	885.429
849.304	884.765
849.638	884.043
849.971	883.347
850.305	884.048
850.638	883.162
850.972	882.739
851.305	881.452
851.638	881.724
851.972	881.524
852.305	880.353
852.639	879.707
852.972	880.153
853.306	879.376
853.639	878.776
853.972	879.290
854.306	877.587
854.639	876.774
854.973	876.942
855.306	876.984
855.640	875.881
855.973	877.366
856.307	876.296
856.640	875.182
856.973	874.355
857.307	874.792
857.640	873.765
857.974	873.989
858.307	872.964
858.641	873.857
858.974	871.560
859.307	872.463
859.641	871.391
859.974	870.643
860.308	869.958
860.641	870.736
860.975	869.145
861.308	869.242
861.641	869.696
861.975	868.786
862.308	867.563
862.642	867.771
862.975	866.203
863.309	866.664
863.642	866.688
863.975	866.172
864.309	864.266
864.642	864.465
864.976	863.939
865.309	864.408
865.643	863.403
865.976	862.261
866.309	862.658
866.643	862.217
866.976	862.260
867.310	861.274
867.643	859.935
867.977	860.399
868.310	859.893
868.643	857.926
868.977	859.325
869.310	858.127
869.644	858.118
869.977	856.735
870.311	856.941
870.644	856.504
870.978	855.988
871.311	856.427
871.644	855.865
871.978	855.732
872.311	854.132
872.645	854.019
872.978	853.552
873.312	852.922
873.645	852.642
873.978	851.325
874.312	852.324
874.645	850.789
874.979	850.636
875.312	848.983
875.646	849.882
875.979	850.103
876.312	849.482
876.646	847.954
876.979	848.489
877.313	848.251
877.646	846.730
877.980	846.833
878.313	845.553
878.646	846.169
878.980	845.205
879.313	844.561
879.647	843.802
879.980	844.439
880.314	843.357
880.647	843.207
880.980	842.400
881.314	842.631
881.647	842.031
881.981	841.049
882.314	840.196
882.648	840.321
882.981	840.655
883.314	838.884
883.648	839.819
883.981	837.962
884.315	839.345
884.648	838.326
884.982	837.495
885.315	837.481
885.649	836.604
885.982	835.760
886.315	835.679
886.649	833.788
886.982	834.239
887.316	834.333
887.649	832.960
887.983	833.205
888.316	832.854
888.649	831.525
888.983	832.956
889.316	831.544
889.650	829.061
889.983	830.732
890.317	830.008
890.650	829.556
890.983	829.417
891.317	829.744
891.650	828.447
891.984	828.135
892.317	826.380
892.651	825.645
892.984	825.644
893.317	825.693
893.651	825.222
893.984	824.460
894.318	824.264
894.651	824.608
894.985	824.369
895.318	823.458
895.651	822.485
895.985	821.829
896.318	821.800
896.652	820.190
896.985	820.448
897.319	820.472
897.652	819.737
897.985	819.300
898.319	818.185
898.652	816.959
898.986	817.020
899.319	817.351
899.653	817.243
899.986	816.251
900.320	815.293
900.653	815.010
900.986	815.240
901.320	814.731
901.653	814.659
901.987	813.514
902.320	812.457
902.654	811.366
902.987	811.731
903.320	811.774
903.654	810.833
903.987	810.892
904.321	809.870
904.654	810.316
904.988	808.148
905.321	808.764
905.654	807.975
905.988	808.157
906.321	807.011
906.655	806.571
906.988	806.761
907.322	805.353
907.655	805.599
907.988	804.883
908.322	803.957
908.655	803.696
908.989	803.895
909.322	803.753
909.656	803.196
909.989	802.171
910.322	800.501
910.656	801.097
910.989	801.077
911.323	800.356
911.656	800.267
911.990	799.177
912.323	798.233
912.656	798.811
912.990	797.526
913.323	796.521
913.657	796.741
913.990	795.695
914.324	796.130
914.657	793.383
914.991	794.726
915.324	793.624
915.657	793.385
915.991	792.212
916.324	792.881
916.658	791.840
916.991	791.503
917.325	790.908
917.658	791.239
917.991	790.009
918.325	789.946
918.658	789.281
918.992	789.133
919.325	787.768
919.659	788.348
919.992	788.174
920.325	786.873
920.659	786.823
920.992	786.734
921.326	785.304
921.659	785.362
921.993	784.334
922.326	784.319
922.659	783.964
922.993	783.485
923.326	782.092
923.660	782.029
923.993	781.678
924.327	781.823
924.660	780.427
924.993	779.448
925.327	779.844
925.660	779.298
925.994	779.268
926.327	777.251
926.661	778.931
926.994	777.799
927.327	776.106
927.661	776.490
927.994	775.348
928.328	775.429
928.661	774.892
928.995	774.527
929.328	773.906
929.662	773.550
929.995	773.874
930.328	772.005
930.662	772.227
930.995	770.569
931.329	771.363
931.662	770.806
931.996	770.051
932.329	770.179
932.662	768.343
932.996	768.631
933.329	768.432
933.663	766.563
933.996	766.550
934.330	766.592
934.663	766.010
934.996	765.856
935.330	765.269
935.663	765.162
935.997	764.824
936.330	764.777
936.664	762.526
936.997	762.222
937.330	762.163
937.664	761.347
937.997	761.282
938.331	760.080
938.664	759.098
938.998	759.182
939.331	758.566
939.664	758.527
939.998	756.326
940.331	757.746
940.665	757.178
940.998	756.599
941.332	756.003
941.665	756.348
941.998	754.452
942.332	754.557
942.665	753.581
942.999	752.876
943.332	752.994
943.666	752.242
943.999	752.516
944.333	752.132
944.666	751.112
944.999	750.579
945.333	750.107
945.666	749.567
946.000	749.343
946.333	748.281
946.667	747.836
947.000	747.123
947.333	746.335
947.667	747.394
948.000	747.448
948.334	745.182
948.667	744.463
949.001	745.548
949.334	744.399
949.667	742.413
950.001	742.967
950.334	742.155
950.668	742.186
951.001	741.077
951.335	741.125
951.668	740.014
952.001	739.542
952.335	739.741
952.668	738.638
953.002	738.541
953.335	738.905
953.669	736.840
954.002	736.526
954.335	736.125
954.669	735.706
955.002	736.132
955.336	734.284
955.669	733.504
956.003	733.208
956.336	733.615
956.669	732.456
957.003	732.917
957.336	731.881
957.670	731.743
958.003	730.208
958.337	729.479
958.670	729.637
959.004	728.694
959.337	728.602
959.670	727.560
960.004	727.419
960.337	726.890
960.671	727.911
961.004	725.950
961.338	725.278
961.671	724.645
962.004	724.442
962.338	724.333
962.671	723.832
963.005	723.512
963.338	723.167
963.672	722.219
964.005	721.192
964.338	721.306
964.672	720.556
965.005	720.364
965.339	720.715
965.672	719.098
966.006	719.141
966.339	718.040
966.672	717.298
967.006	716.551
967.339	716.283
967.673	716.348
968.006	715.520
968.340	714.285
968.673	715.004
969.006	714.201
969.340	712.773
969.673	711.732
970.007	712.592
970.340	712.179
970.674	712.668
971.007	711.003
971.340	710.538
971.674	709.410
972.007	708.802
972.341	707.763
972.674	708.037
973.008	708.794
973.341	707.162
973.675	705.750
974.008	705.930
974.341	706.193
974.675	704.854
975.008	704.027
975.342	703.692
975.675	703.369
976.009	703.692
976.342	701.530
976.675	702.219
977.009	701.824
977.342	700.738
977.676	700.223
978.009	700.588
978.343	698.727
978.676	699.455
979.009	698.767
979.343	698.877
979.676	696.911
980.010	696.869
980.343	696.740
980.677	695.917
981.010	695.207
981.343	695.512
981.677	693.470
982.010	692.675
982.344	693.135
982.677	692.639
983.011	692.531
983.344	691.165
983.677	690.638
984.011	690.036
984.344	690.132
984.678	688.867
985.011	688.693
985.345	689.133
985.678	688.140
986.011	686.631
986.345	686.341
986.678	686.148
987.012	686.917
987.345	685.906
987.679	685.484
988.012	684.244
988.346	683.529
988.679	683.615
989.012	683.341
989.346	681.630
989.679	682.121
990.013	680.602
990.346	680.112
990.680	680.259
991.013	680.049
991.346	678.033
991.680	678.367
992.013	678.235
992.347	676.962
992.680	676.176
993.014	676.230
993.347	676.816
993.680	675.823
994.014	675.458
994.347	673.835
994.681	672.841
995.014	673.711
995.348	672.658
995.681	672.418
996.014	672.336
996.348	671.883
996.681	671.638
997.015	670.773
997.348	670.838
997.682	668.574
998.015	669.156
998.348	667.970
998.682	667.947
999.015	667.529
999.349	666.192
999.682	665.913
1000.016	665.219
1000.349	665.190
1000.682	663.828
1001.016	663.065
1001.349	662.460
1001.683	662.504
1002.016	662.492
1002.350	662.215
1002.683	660.680
1003.017	661.379
1003.350	659.819
1003.683	659.155
1004.017	659.246
1004.350	659.119
1004.684	658.676
1005.017	657.222
1005.351	656.560
1005.684	656.656
1006.017	656.446
1006.351	654.715
1006.684	654.886
1007.018	653.573
1007.351	654.040
1007.685	653.047
1008.018	653.620
1008.351	652.725
1008.685	653.280
1009.018	651.149
1009.352	651.649
1009.685	649.750
1010.019	649.441
1010.352	648.412
1010.685	648.482
1011.019	648.690
1011.352	648.404
1011.686	646.292
1012.019	646.309
1012.353	645.697
1012.686	645.969
1013.019	644.956
1013.353	643.865
1013.686	643.051
1014.020	643.708
1014.353	643.999
1014.687	642.661
1015.020	641.689
1015.353	642.038
1015.687	640.596
1016.020	640.901
1016.354	638.802
1016.687	640.046
1017.021	637.630
1017.354	637.820
1017.688	637.091
1018.021	636.494
1018.354	636.026
1018.688	635.792
1019.021	635.024
1019.355	634.289
1019.688	634.718
1020.022	633.900
1020.355	633.076
1020.688	632.734
1021.022	631.316
1021.355	631.909
1021.689	631.443
1022.022	631.147
1022.356	629.949
1022.689	629.301
